Time,EMG1,EMG2,EMG3,EMG4,EMG5,EMG6,EMG7,EMG8
14:43:38:353218,1,0,-2,-2,0,0,-2,1
14:43:38:360981,1,0,-2,-2,0,0,-2,1
14:43:38:361774,-2,0,-2,0,-1,-1,-1,-2
14:43:38:367847,-1,-2,-1,-2,-2,-1,-1,-1
14:43:38:375289,-1,-2,-1,-2,-2,-1,-1,-1
14:43:38:382797,-1,-2,-2,-2,0,-2,0,-1
14:43:38:391037,0,-1,-1,0,0,0,-3,-2
14:43:38:391844,0,-1,-1,0,0,0,-3,-2
14:43:38:397801,-1,-1,-2,-2,-2,-1,-3,-2
14:43:38:413465,-1,-1,-1,1,-2,0,-1,-1
14:43:38:414269,-1,-1,-1,1,-2,0,-1,-1
14:43:38:420251,0,1,-1,0,-1,-2,-2,-1
14:43:38:427748,-1,-2,-2,-2,0,-1,0,-1
14:43:38:435323,-1,-2,-2,-2,0,-1,0,-1
14:43:38:442770,-1,-2,-1,-1,-1,1,0,-1
14:43:38:451003,0,-2,0,-2,0,-2,0,-1
14:43:38:451812,0,-2,0,-2,0,-2,0,-1
14:43:38:457794,-2,-1,0,0,-2,0,-1,-1
14:43:38:473507,-1,0,-1,-2,-3,-1,0,-1
14:43:38:474358,-1,0,-1,-2,-3,-1,0,-1
14:43:38:488430,-1,-2,-1,-3,0,-1,0,-2
14:43:38:489237,-1,0,-1,-1,-2,-1,-1,-1
14:43:38:495372,-1,0,-1,-1,-2,-1,-1,-1
14:43:38:502784,-1,-1,0,0,-3,0,-1,0
14:43:38:510983,-1,-1,-1,-2,0,-2,-3,-1
14:43:38:511787,-1,-1,-1,-2,0,-2,-3,-1
14:43:38:517780,0,-1,-2,-1,0,-1,-2,-1
14:43:38:533497,-2,-3,-1,-3,0,1,-1,0
14:43:38:534319,-2,-3,-1,-3,0,1,-1,0
14:43:38:540275,0,-1,-2,0,-1,-1,-1,-2
14:43:38:547766,-1,-1,-1,-1,-1,-1,-1,-2
14:43:38:555338,-1,-1,-1,-1,-1,-1,-1,-2
14:43:38:562792,-1,-1,-2,-1,0,-1,0,0
14:43:38:570985,-1,-1,-1,-1,-2,-1,0,1
14:43:38:571833,-1,-1,-1,-1,-2,-1,0,1
14:43:38:577779,0,-1,-2,0,-1,-1,0,-2
14:43:38:593496,-1,0,-2,-1,0,0,0,0
14:43:38:594306,-1,0,-2,-1,0,0,0,0
14:43:38:600276,-1,-2,-1,0,0,-1,-2,0
14:43:38:607788,0,-1,-2,-1,0,0,1,-2
14:43:38:623469,0,-1,-2,-1,0,0,1,-2
14:43:38:624299,-1,0,-2,-2,-1,-1,-2,-1
14:43:38:631002,-2,-1,0,0,-2,-1,0,-1
14:43:38:631804,-2,-1,0,0,-2,-1,0,-1
14:43:38:637791,-1,0,0,0,-1,-2,2,0
14:43:38:653486,0,-1,-2,1,-2,-1,-1,-2
14:43:38:654307,0,-1,-2,1,-2,-1,-1,-2
14:43:38:660305,-2,-2,-1,0,-3,-1,-2,-1
14:43:38:667785,-1,-1,1,-1,-1,-2,-1,-3
14:43:38:675383,-1,-1,1,-1,-1,-2,-1,-3
14:43:38:682789,-1,2,-1,0,-2,-2,-3,-1
14:43:38:691035,-1,-1,-2,1,0,-1,-1,-1
14:43:38:691805,-1,-1,-2,1,0,-1,-1,-1
14:43:38:697816,-1,-3,-2,-1,-1,-1,-1,0
14:43:38:713478,-1,1,-1,-1,-1,0,-1,-2
14:43:38:714291,-1,1,-1,-1,-1,0,-1,-2
14:43:38:720277,-1,-2,-1,-1,-1,1,-1,-1
14:43:38:727782,-1,-1,-2,-1,-3,0,-2,-1
14:43:38:735393,-1,-1,-2,-1,-3,0,-2,-1
14:43:38:742805,0,-1,-2,-1,0,-1,-1,-2
14:43:38:750969,0,-1,-1,-1,1,-2,-2,-1
14:43:38:751786,0,-1,-1,-1,1,-2,-2,-1
14:43:38:757797,0,0,-1,1,1,-1,-2,-1
14:43:38:773513,-2,-1,-1,2,0,0,-2,0
14:43:38:774336,-2,-1,-1,2,0,0,-2,0
14:43:38:780288,-2,-1,-1,-1,-1,-2,0,-3
14:43:38:787783,-1,-1,-1,-2,1,-1,-1,-1
14:43:38:795319,-1,-1,-1,-2,1,-1,-1,-1
14:43:38:802792,-3,0,1,-2,-1,-2,-2,-1
14:43:38:812004,0,-1,-1,-1,-1,0,-1,-2
14:43:38:817801,0,-1,-1,-1,-1,0,-1,-2
14:43:38:825258,0,-1,1,-3,-1,-1,-1,0
14:43:38:833232,-1,-1,-1,0,-2,-1,1,1
14:43:38:840953,-1,-1,-1,0,-2,-1,1,1
14:43:38:841789,-2,-1,-1,-1,0,1,-1,-1
14:43:38:855944,-2,-1,-2,-1,-1,-2,-2,-1
14:43:38:856768,-2,-1,-2,-1,-1,-2,-2,-1
14:43:38:862748,1,0,-1,1,-1,1,-1,-1
14:43:38:870985,0,-2,-2,-2,-1,-1,-1,-2
14:43:38:871801,0,-2,-2,-2,-1,-1,-1,-2
14:43:38:885289,-2,0,-1,0,-2,-1,0,0
14:43:38:893439,0,-2,0,-1,-1,-2,-1,0
14:43:38:894311,0,-2,0,-1,-1,-2,-1,0
14:43:38:900230,0,-2,-2,-2,-1,-3,0,0
14:43:38:916421,-1,0,-1,0,-1,1,0,-3
14:43:38:917249,-1,0,-1,0,-1,1,0,-3
14:43:38:931596,-1,-2,0,-1,-1,-1,-2,-3
14:43:38:932395,-2,0,-1,-1,-2,0,-2,-2
14:43:38:933248,-2,0,-1,-1,-2,0,-2,-2
14:43:38:962280,-1,0,-2,-2,-1,0,-2,0
14:43:38:963062,-2,-1,-1,-1,-2,-2,-1,0
14:43:38:963911,-2,-1,-1,-1,-2,-2,-1,0
14:43:38:964787,0,-3,0,0,0,-1,0,0
14:43:38:984169,0,0,0,-1,-3,-1,-1,-1
14:43:38:984986,0,0,0,-1,-3,-1,-1,-1
14:43:38:985776,0,-2,-1,-1,-3,1,0,-1
14:43:38:991009,0,-1,-1,0,0,-1,-1,-1
14:43:38:991834,0,-1,-1,0,0,-1,-1,-1
14:43:39:5274,0,-2,0,-1,0,-2,0,-2
14:43:39:13502,0,0,-2,-1,0,0,-2,-2
14:43:39:14303,0,0,-2,-1,0,0,-2,-2
14:43:39:20282,0,-2,-3,1,-1,-1,-1,-1
14:43:39:35994,-2,-1,-2,-1,-1,-2,-2,1
14:43:39:36809,-2,-1,-2,-1,-1,-2,-2,1
14:43:39:42773,-2,-1,0,-2,-1,0,-2,-2
14:43:39:50984,0,-1,-1,-2,-2,-1,-1,-1
14:43:39:51804,0,-1,-1,-2,-2,-1,-1,-1
14:43:39:65763,-2,0,-1,-1,0,0,-1,-1
14:43:39:73483,0,-1,0,-2,-2,0,-1,0
14:43:39:74301,0,-1,0,-2,-2,0,-1,0
14:43:39:80314,-1,-2,0,-2,-2,-1,-2,0
14:43:39:95997,-2,0,-3,-3,-1,-3,0,-1
14:43:39:96806,-2,0,-3,-3,-1,-3,0,-1
14:43:39:102791,-1,0,0,-1,-1,-2,1,0
14:43:39:118510,-1,-1,0,-2,-2,-1,-2,-1
14:43:39:119278,-1,-1,0,-2,-2,-1,-2,-1
14:43:39:125302,-2,-2,-1,-2,-1,-2,-1,0
14:43:39:133479,-3,-2,0,-1,0,-2,-1,0
14:43:39:134323,-3,-2,0,-1,0,-2,-1,0
14:43:39:140267,-2,-1,1,-1,-2,0,-2,-1
14:43:39:156004,-2,-1,-1,-1,-1,-2,0,-1
14:43:39:156805,-2,-1,-1,-1,-1,-2,0,-1
14:43:39:162779,0,-2,-3,0,0,1,-1,0
14:43:39:170993,0,0,-1,0,-1,-1,0,-1
14:43:39:171826,0,0,-1,0,-1,-1,0,-1
14:43:39:185331,-2,0,-1,-1,0,-1,-1,-3
14:43:39:193471,1,0,0,0,-2,0,-1,0
14:43:39:194268,1,0,0,0,-2,0,-1,0
14:43:39:207839,-1,-2,-1,0,-2,-1,-2,0
14:43:39:216014,0,-2,-2,0,-2,-2,-1,0
14:43:39:216781,0,-2,-2,0,-2,-2,-1,0
14:43:39:222761,-1,-1,-2,0,-2,-1,-1,0
14:43:39:230959,-1,1,0,0,-2,0,-1,0
14:43:39:231813,-1,1,0,0,-2,0,-1,0
14:43:39:245313,1,-1,-1,-2,0,-2,-1,-2
14:43:39:253481,-2,-2,-1,-2,-1,-1,-2,-2
14:43:39:254287,-2,-2,-1,-2,-1,-1,-2,-2
14:43:39:260263,-2,1,-2,-1,-1,-2,-1,-1
14:43:39:275969,-2,-1,-1,-1,1,-1,-4,-3
14:43:39:276789,-2,-1,-1,-1,1,-1,-4,-3
14:43:39:282836,-1,-3,-2,-1,-2,-1,-1,0
14:43:39:290961,-1,-2,-1,-1,-1,-1,0,2
14:43:39:291803,-1,-2,-1,-1,-1,-1,0,2
14:43:39:305319,0,-2,1,0,-2,-2,-1,-1
14:43:39:314201,0,-2,1,0,-2,-2,-1,-1
14:43:39:314985,-1,-2,-2,-1,-1,-1,-2,-3
14:43:39:320309,-2,-2,0,-1,-2,-1,1,0
14:43:39:336047,-2,-2,0,-1,-2,-1,1,0
14:43:39:336747,-1,0,0,0,-2,0,0,0
14:43:39:342830,-1,1,-2,-1,-1,0,-2,-2
14:43:39:358519,-1,1,-2,-1,-1,0,-2,-2
14:43:39:359315,1,0,-2,-1,0,0,1,-1
14:43:39:365299,0,-2,-3,-1,0,-1,0,0
14:43:39:373468,0,-2,-3,-1,0,-1,0,0
14:43:39:374259,-1,-1,-1,-2,0,-1,-2,0
14:43:39:380315,0,0,-1,0,-1,-1,-2,-1
14:43:39:396010,0,0,-1,0,-1,-1,-2,-1
14:43:39:396814,-1,-2,-2,-3,-2,-1,-1,-1
14:43:39:402790,-2,-1,-2,-1,0,-2,-1,-1
14:43:39:418521,-2,-1,-2,-1,0,-2,-1,-1
14:43:39:419326,-1,-1,-1,-1,-2,-2,-1,-1
14:43:39:425309,0,0,0,-2,-2,-1,-1,-1
14:43:39:433552,0,0,0,-2,-2,-1,-1,-1
14:43:39:434340,0,0,-1,-2,-2,0,0,-1
14:43:39:440294,0,-1,-3,-4,-1,-1,0,-2
14:43:39:456035,0,-1,-3,-4,-1,-1,0,-2
14:43:39:456796,-2,-2,-1,2,-1,-1,-1,-1
14:43:39:462799,-2,-1,-1,0,1,0,-1,-1
14:43:39:486642,-2,-1,-1,0,1,0,-1,-1
14:43:39:487422,0,0,-1,0,-1,0,-2,1
14:43:39:488281,-1,-2,0,1,-1,-1,-1,-2
14:43:39:493508,-1,-2,0,1,-1,-1,-1,-2
14:43:39:494289,-2,-1,0,0,-3,-1,-2,0
14:43:39:500280,-1,-2,-1,-2,-2,-2,-2,-2
14:43:39:515998,-1,-2,-1,-2,-2,-2,-2,-2
14:43:39:516775,-1,0,-1,-1,0,0,-1,0
14:43:39:522763,0,-1,-3,-2,-1,-1,-2,-1
14:43:39:538451,0,-1,-3,-2,-1,-1,-2,-1
14:43:39:539270,-1,0,0,-2,-1,0,0,0
14:43:39:545338,-2,-1,-2,-2,-2,-2,-1,0
14:43:39:553487,-2,-1,-2,-2,-2,-2,-1,0
14:43:39:554301,0,-2,-2,-1,1,-1,0,-1
14:43:39:560303,-1,-1,0,-1,0,-1,-1,-2
14:43:39:575961,-1,-1,0,-1,0,-1,-1,-2
14:43:39:576775,-1,-1,-1,-1,-1,0,-2,-2
14:43:39:582840,-1,-1,-2,0,-1,-2,0,0
14:43:39:598475,-1,-1,-2,0,-1,-2,0,0
14:43:39:599270,-1,-2,-1,0,2,-1,-1,-3
14:43:39:605289,1,-2,0,0,0,-1,-1,-1
14:43:39:613462,1,-2,0,0,0,-1,-1,-1
14:43:39:614269,1,-1,-3,-1,-3,0,0,-2
14:43:39:620340,-2,-1,0,0,-1,1,-2,0
14:43:39:635983,-2,-1,0,0,-1,1,-2,0
14:43:39:636775,-1,-1,0,-2,-1,-1,-2,1
14:43:39:642768,1,-1,-2,0,-1,-3,-1,0
14:43:39:658563,1,-1,-2,0,-1,-3,-1,0
14:43:39:659284,-1,-1,0,0,-1,-3,-1,-1
14:43:39:665288,-1,0,0,-1,-1,0,-1,-2
14:43:39:673472,-1,0,0,-1,-1,0,-1,-2
14:43:39:674250,-1,-1,-2,-2,-1,-1,-1,-1
14:43:39:680291,-2,0,-1,0,-1,0,-1,-1
14:43:39:696038,-2,0,-1,0,-1,0,-1,-1
14:43:39:696806,1,-2,-1,-1,0,-2,-1,-1
14:43:39:702824,-1,0,-1,-2,-3,-1,0,-1
14:43:39:718521,-1,0,-1,-2,-3,-1,0,-1
14:43:39:719300,-1,-2,0,-1,-1,-2,1,-2
14:43:39:725288,-1,-2,0,-2,-1,-1,-2,0
14:43:39:733522,-1,-2,0,-2,-1,-1,-2,0
14:43:39:734325,-1,1,-1,-1,0,0,-1,-1
14:43:39:747782,-1,0,0,-1,0,-1,-2,-2
14:43:39:756026,-1,0,0,-1,0,-1,-2,-2
14:43:39:756814,-2,-2,-1,0,-2,0,0,0
14:43:39:762791,-2,-1,-2,-2,-2,0,-1,-1
14:43:39:778491,-2,-1,-2,-2,-2,0,-1,-1
14:43:39:779299,-1,-1,-2,-1,-1,-2,0,-2
14:43:39:785273,-1,-1,-1,0,-1,-1,0,-1
14:43:39:793552,-1,-1,-1,0,-1,-1,0,-1
14:43:39:794346,-2,-1,0,-1,-3,-1,-1,2
14:43:39:807767,-1,-2,-2,-1,-2,-3,0,0
14:43:39:816015,-1,-2,-2,-1,-2,-3,0,0
14:43:39:816811,-2,-2,-1,-1,-2,-1,-1,-1
14:43:39:822800,-1,-3,-2,-2,0,0,1,0
14:43:39:839002,-1,-3,-2,-2,0,0,1,0
14:43:39:839765,-1,0,-2,-1,-1,-2,-2,-1
14:43:39:845269,0,-1,0,0,0,-1,-1,-1
14:43:39:853503,0,-1,0,0,0,-1,-1,-1
14:43:39:854314,0,-1,-1,-1,-1,0,-1,-2
14:43:39:867772,1,1,0,-1,1,-1,-2,-3
14:43:39:876014,1,1,0,-1,1,-1,-2,-3
14:43:39:876815,-1,0,-1,-2,0,-1,-1,0
14:43:39:882789,-1,-2,-1,1,-1,-3,-2,-2
14:43:39:898490,-1,-2,-1,1,-1,-3,-2,-2
14:43:39:899287,-1,-2,-2,-2,-1,-1,-1,0
14:43:39:905273,-2,0,0,-1,-1,-1,-1,0
14:43:39:913517,-2,0,0,-1,-1,-1,-1,0
14:43:39:914273,0,-1,-1,0,-1,-1,-1,-2
14:43:39:927837,-1,-1,-2,-1,-3,0,-2,1
14:43:39:936000,-1,-1,-2,-1,-3,0,-2,1
14:43:39:936782,-1,-1,-1,-2,0,-3,-1,-1
14:43:39:950958,-1,-2,-2,-2,-2,1,0,-1
14:43:39:951788,-1,-2,-2,-2,-2,1,0,-1
14:43:39:957784,0,-1,-2,0,-3,-2,1,-2
14:43:39:965248,-1,-1,-2,-1,-1,-1,-1,0
14:43:39:973509,-1,-1,-2,-1,-1,-1,-1,0
14:43:39:974290,-1,-3,0,0,0,0,-2,0
14:43:39:987811,0,-1,1,-3,-7,-1,1,-1
14:43:39:995962,0,-1,1,-3,-7,-1,1,-1
14:43:39:996802,0,0,-4,-7,-5,-1,-1,-1
14:43:40:2767,-2,-1,-1,1,-1,-2,-2,-1
14:43:40:10341,-2,-1,-1,1,-1,-2,-2,-1
14:43:40:17752,-2,-2,-4,-21,-5,0,-2,-2
14:43:40:25243,0,-2,-1,0,4,3,2,1
14:43:40:33497,0,-2,-1,0,4,3,2,1
14:43:40:34310,0,0,0,7,0,-2,-3,-1
14:43:40:47785,-2,4,1,7,-8,-7,-4,-1
14:43:40:56000,-2,4,1,7,-8,-7,-4,-1
14:43:40:56798,0,1,5,22,2,-4,-2,0
14:43:40:62774,4,5,9,13,2,3,0,0
14:43:40:78488,4,5,9,13,2,3,0,0
14:43:40:79298,1,0,-18,-21,-4,3,4,2
14:43:40:85285,-5,-14,1,-17,11,-2,-6,-2
14:43:40:93506,-5,-14,1,-17,11,-2,-6,-2
14:43:40:94286,0,12,-8,-17,20,1,-3,-2
14:43:40:107829,1,-1,-18,-23,15,6,1,0
14:43:40:124148,1,-1,-18,-23,15,6,1,0
14:43:40:124933,0,3,-1,-26,-27,-4,1,1
14:43:40:125758,-2,1,0,22,-12,-7,-5,-3
14:43:40:138551,-2,1,0,22,-12,-7,-5,-3
14:43:40:139310,0,2,1,-39,5,0,0,2
14:43:40:145326,2,0,-7,24,7,6,5,0
14:43:40:153482,2,0,-7,24,7,6,5,0
14:43:40:154270,-2,-8,-6,40,-18,-10,-6,-3
14:43:40:167789,0,-5,-11,-21,-3,-10,-6,-2
14:43:40:176033,0,-5,-11,-21,-3,-10,-6,-2
14:43:40:176796,-1,0,23,51,11,3,0,-3
14:43:40:182835,-1,3,24,0,-5,0,-1,-3
14:43:40:198508,-1,3,24,0,-5,0,-1,-3
14:43:40:199304,-3,-5,4,27,4,-5,-5,-4
14:43:40:205279,-1,0,11,23,0,0,2,1
14:43:40:213551,-1,0,11,23,0,0,2,1
14:43:40:214292,-1,-5,-16,-16,2,3,4,-1
14:43:40:227805,-1,-4,-19,-39,-3,0,0,1
14:43:40:236001,-1,-4,-19,-39,-3,0,0,1
14:43:40:236830,-1,0,-4,-27,-9,-4,-2,-3
14:43:40:242776,0,4,3,19,1,0,0,0
14:43:40:258505,0,4,3,19,1,0,0,0
14:43:40:259287,-8,-17,25,26,7,4,4,2
14:43:40:265279,1,-9,-34,-49,-10,-1,1,7
14:43:40:273530,1,-9,-34,-49,-10,-1,1,7
14:43:40:274296,3,27,46,-17,-8,-2,-6,15
14:43:40:287757,25,10,24,58,5,0,-5,12
14:43:40:296003,25,10,24,58,5,0,-5,12
14:43:40:296804,-18,2,-9,-6,1,-1,-6,0
14:43:40:302791,4,-7,-23,-9,-9,-3,-1,1
14:43:40:318506,4,-7,-23,-9,-9,-3,-1,1
14:43:40:319275,-7,-2,-28,-2,-1,-1,-2,4
14:43:40:325275,9,-1,-5,-13,1,0,0,-2
14:43:40:341019,9,-1,-5,-13,1,0,0,-2
14:43:40:341787,-45,-9,12,14,2,0,-1,-12
14:43:40:347766,1,-3,-15,-34,-5,-1,3,0
14:43:40:355995,1,-3,-15,-34,-5,-1,3,0
14:43:40:356769,13,-1,0,19,-1,-4,-2,-7
14:43:40:362815,-46,4,45,38,3,0,0,-11
14:43:40:378478,-46,4,45,38,3,0,0,-11
14:43:40:379273,16,-3,37,33,0,-3,-2,-2
14:43:40:385251,10,-1,10,5,6,1,0,14
14:43:40:393514,10,-1,10,5,6,1,0,14
14:43:40:394282,2,-1,-23,-31,0,-2,-1,-5
14:43:40:407788,-5,2,10,-18,-6,-1,-4,-6
14:43:40:416002,-5,2,10,-18,-6,-1,-4,-6
14:43:40:416788,-7,-2,-14,-6,0,3,2,4
14:43:40:422764,-3,-20,-30,-18,-5,-2,-3,-2
14:43:40:438462,-3,-20,-30,-18,-5,-2,-3,-2
14:43:40:439273,21,-6,-11,1,-2,-4,0,-3
14:43:40:445292,-2,0,8,16,1,-1,-1,-7
14:43:40:453472,-2,0,8,16,1,-1,-1,-7
14:43:40:454283,13,-5,5,-10,0,1,1,-3
14:43:40:467796,-2,2,-25,-20,-3,-2,0,-4
14:43:40:475998,-2,2,-25,-20,-3,-2,0,-4
14:43:40:476791,-1,5,-16,-9,3,0,1,0
14:43:40:482822,-7,-5,12,10,-7,-6,-4,-7
14:43:40:506701,-7,-5,12,10,-7,-6,-4,-7
14:43:40:507455,7,1,-1,2,0,0,2,0
14:43:40:508271,-3,-1,4,11,0,0,-1,-5
14:43:40:513535,-3,-1,4,11,0,0,-1,-5
14:43:40:514332,7,-1,6,10,-4,-4,-3,-4
14:43:40:527782,0,4,-7,-5,3,0,1,-2
14:43:40:536006,0,4,-7,-5,3,0,1,-2
14:43:40:536826,0,-4,-35,-48,-4,-1,-1,-1
14:43:40:542826,2,32,16,-9,-3,-1,-1,0
14:43:40:558519,2,32,16,-9,-3,-1,-1,0
14:43:40:559304,13,15,11,14,2,0,-2,-20
14:43:40:565271,-14,-3,5,-19,-4,-2,-1,-12
14:43:40:573512,-14,-3,5,-19,-4,-2,-1,-12
14:43:40:574320,18,-7,0,2,-1,4,4,15
14:43:40:587766,5,-4,-9,-3,-2,-2,0,0
14:43:40:595991,5,-4,-9,-3,-2,-2,0,0
14:43:40:596832,-10,-4,1,6,-3,-6,-3,-1
14:43:40:602768,-1,-5,-19,-11,3,2,-1,6
14:43:40:626627,-1,-5,-19,-11,3,2,-1,6
14:43:40:627459,-7,-1,-3,-1,-1,0,-1,0
14:43:40:628244,0,-4,-5,5,-4,-2,0,-1
14:43:40:633465,0,-4,-5,5,-4,-2,0,-1
14:43:40:634314,-8,1,7,-1,6,2,0,1
14:43:40:647786,2,-3,11,6,7,3,1,0
14:43:40:655950,2,-3,11,6,7,3,1,0
14:43:40:656744,-8,1,3,-12,-9,-4,-2,1
14:43:40:662777,-2,-7,7,16,-1,0,0,1
14:43:40:679185,-2,-7,7,16,-1,0,0,1
14:43:40:679960,-4,1,-1,0,-2,-3,-4,-2
14:43:40:685291,0,-3,1,4,-3,-3,-2,-2
14:43:40:693484,0,-3,1,4,-3,-3,-2,-2
14:43:40:694266,-9,-8,-10,0,-1,-2,-3,0
14:43:40:707805,-2,-3,-10,2,-6,-4,-2,-1
14:43:40:715990,-2,-3,-10,2,-6,-4,-2,-1
14:43:40:716767,0,-2,-3,2,-1,0,-2,0
14:43:40:730279,0,-6,-10,-8,-1,-2,-3,-3
14:43:40:738522,0,-6,-10,-8,-1,-2,-3,-3
14:43:40:739320,-4,0,13,7,-4,-1,1,0
14:43:40:745295,-1,-5,-7,-8,2,3,0,-3
14:43:40:752804,-1,-5,-7,-8,2,3,0,-3
14:43:40:760299,-5,0,-5,0,-1,0,-2,-1
14:43:40:767815,2,6,1,-10,-6,-6,-3,-2
14:43:40:775991,2,6,1,-10,-6,-6,-3,-2
14:43:40:776787,-1,-6,-11,5,7,1,-1,-1
14:43:40:790349,1,6,0,5,-2,0,0,0
14:43:40:798479,1,6,0,5,-2,0,0,0
14:43:40:799281,2,0,4,5,-3,-4,-1,0
14:43:40:805317,-5,-7,-3,-3,2,-1,-1,-2
14:43:40:812839,-5,-7,-3,-3,2,-1,-1,-2
14:43:40:820250,8,2,-2,-3,-2,0,-1,-3
14:43:40:827821,6,-2,-2,2,-2,0,-3,-1
14:43:40:836037,6,-2,-2,2,-2,0,-3,-1
14:43:40:836791,-3,4,-14,-6,0,-1,-3,2
14:43:40:850370,10,9,-8,4,0,0,1,18
14:43:40:858478,10,9,-8,4,0,0,1,18
14:43:40:859305,-3,-6,9,-5,-5,-3,0,0
14:43:40:865253,-6,8,16,5,-2,-2,-3,-1
14:43:40:872842,-6,8,16,5,-2,-2,-3,-1
14:43:40:880278,-13,6,1,-8,-4,-2,-2,-2
14:43:40:887792,-8,9,3,5,1,-2,0,-2
14:43:40:896017,-8,9,3,5,1,-2,0,-2
14:43:40:896819,27,2,-15,-9,-3,-3,-5,12
14:43:40:910255,-11,-3,-4,0,0,-2,-1,-2
14:43:40:918511,-11,-3,-4,0,0,-2,-1,-2
14:43:40:919286,-8,-6,8,2,0,1,1,-7
14:43:40:925302,0,-13,3,-5,-1,-1,-3,-7
14:43:40:932891,0,-13,3,-5,-1,-1,-3,-7
14:43:40:948434,14,-1,-9,3,5,2,0,2
14:43:40:949243,-3,-8,-8,-4,-6,0,1,-6
14:43:40:963498,-3,-8,-8,-4,-6,0,1,-6
14:43:40:964287,-11,-30,-14,-2,-3,-1,0,-4
14:43:40:970299,-3,4,7,-3,-7,-1,1,-3
14:43:40:978470,-3,4,7,-3,-7,-1,1,-3
14:43:40:979295,-3,-8,-4,3,-2,-3,-3,-2
14:43:40:985272,9,-6,-3,-8,-5,1,-1,9
14:43:40:992820,9,-6,-3,-8,-5,1,-1,9
14:43:41:277,-1,0,0,-2,-1,0,1,-3
14:43:41:7808,-7,-4,1,-3,-4,-3,-2,-4
14:43:41:15999,-7,-4,1,-3,-4,-3,-2,-4
14:43:41:16790,-2,9,12,7,0,2,0,-2
14:43:41:30238,-24,-24,5,6,-2,1,-1,-1
14:43:41:38504,-24,-24,5,6,-2,1,-1,-1
14:43:41:39292,-4,-12,-21,1,-3,-1,2,2
14:43:41:45315,0,-4,-2,4,2,-1,0,-9
14:43:41:60970,0,-4,-2,4,2,-1,0,-9
14:43:41:61776,-10,-2,4,-13,-9,-1,-2,-3
14:43:41:67765,-16,-27,-32,-25,-6,-1,4,2
14:43:41:76000,-16,-27,-32,-25,-6,-1,4,2
14:43:41:76796,-4,6,6,-1,-4,-4,-1,-3
14:43:41:90243,7,13,0,11,2,1,-2,-3
14:43:41:98515,7,13,0,11,2,1,-2,-3
14:43:41:99297,-16,-1,-6,-7,-3,0,4,1
14:43:41:105308,4,12,13,8,3,-1,-2,-3
14:43:41:112871,4,12,13,8,3,-1,-2,-3
14:43:41:120316,0,7,9,17,7,-5,-4,2
14:43:41:127780,13,3,-3,0,5,2,-2,0
14:43:41:136011,13,3,-3,0,5,2,-2,0
14:43:41:136831,-4,-31,9,-2,0,1,-3,-4
14:43:41:150328,13,13,-2,-2,-11,-4,-1,1
14:43:41:158491,13,13,-2,-2,-11,-4,-1,1
14:43:41:159300,1,-1,-4,3,3,2,5,0
14:43:41:165291,11,16,16,4,1,-2,0,2
14:43:41:172859,11,16,16,4,1,-2,0,2
14:43:41:180310,-8,2,0,-6,-6,-2,0,-1
14:43:41:187779,-4,3,15,-12,-8,-6,-5,-6
14:43:41:195994,-4,3,15,-12,-8,-6,-5,-6
14:43:41:196779,19,37,6,1,-4,-1,-4,-2
14:43:41:210282,-7,-30,-1,10,7,3,0,2
14:43:41:218509,-7,-30,-1,10,7,3,0,2
14:43:41:219321,-11,-7,-1,-5,-1,-2,-4,-4
14:43:41:225286,13,37,13,-2,11,1,2,1
14:43:41:249162,13,37,13,-2,11,1,2,1
14:43:41:249950,-11,-21,-3,-5,2,-2,0,0
14:43:41:250817,-22,-10,-20,-16,-6,-5,-5,-3
14:43:41:256044,-22,-10,-20,-16,-6,-5,-5,-3
14:43:41:256814,9,25,7,7,2,-1,-1,-2
14:43:41:270306,4,1,-3,7,1,1,0,1
14:43:41:278498,4,1,-3,7,1,1,0,1
14:43:41:279308,9,0,-6,-4,-4,-2,-1,1
14:43:41:293481,-1,9,19,7,-7,-1,2,-1
14:43:41:294279,-1,9,19,7,-7,-1,2,-1
14:43:41:300252,-2,3,-9,10,-5,-1,-1,2
14:43:41:307798,-1,-15,-32,-14,-1,2,2,-1
14:43:41:315997,-1,-15,-32,-14,-1,2,2,-1
14:43:41:316806,5,0,-4,5,7,3,1,4
14:43:41:330323,1,-3,-21,-3,-2,1,0,-2
14:43:41:338525,1,-3,-21,-3,-2,1,0,-2
14:43:41:339286,-6,-21,-7,-11,-3,0,-1,1
14:43:41:345260,3,-9,0,18,12,0,-5,-1
14:43:41:352851,3,-9,0,18,12,0,-5,-1
14:43:41:360263,-21,-5,3,8,2,-3,-2,-2
14:43:41:367785,-9,-20,-1,1,-4,-3,-3,-2
14:43:41:376002,-9,-20,-1,1,-4,-3,-3,-2
14:43:41:376809,13,-6,8,5,0,-2,-2,-2
14:43:41:390262,-21,-4,-3,2,-3,-3,-2,-5
14:43:41:398492,-21,-4,-3,2,-3,-3,-2,-5
14:43:41:399301,-4,-1,6,-5,2,1,4,1
14:43:41:405288,22,-24,-9,-5,0,-2,-1,-1
14:43:41:412865,22,-24,-9,-5,0,-2,-1,-1
14:43:41:420300,0,-4,-6,-8,-12,-4,-3,-2
14:43:41:427792,11,10,3,8,6,-1,-4,-2
14:43:41:436043,11,10,3,8,6,-1,-4,-2
14:43:41:436824,-1,-2,-2,-3,-5,-4,-1,-1
14:43:41:450277,-4,3,1,-8,-4,-1,3,0
14:43:41:458502,-4,3,1,-8,-4,-1,3,0
14:43:41:459299,6,18,7,-4,6,-1,-5,-3
14:43:41:465272,-15,6,19,18,6,4,3,2
14:43:41:472887,-15,6,19,18,6,4,3,2
14:43:41:480291,-6,-24,-35,-7,-1,0,-1,-3
14:43:41:487801,13,13,7,-3,-1,0,1,-3
14:43:41:495953,13,13,7,-3,-1,0,1,-3
14:43:41:496789,-4,17,14,5,0,1,-1,-1
14:43:41:510283,-25,-18,-10,-7,-5,-1,-6,0
14:43:41:518545,-25,-18,-10,-7,-5,-1,-6,0
14:43:41:519340,5,-4,-19,-26,-8,-5,0,1
14:43:41:525279,5,0,1,-7,0,2,-2,-2
14:43:41:532832,5,0,1,-7,0,2,-2,-2
14:43:41:540305,2,10,4,-9,7,1,1,-1
14:43:41:547793,6,-12,-9,-7,-8,-3,-6,0
14:43:41:555992,6,-12,-9,-7,-8,-3,-6,0
14:43:41:556779,1,1,3,2,-10,-1,-2,-1
14:43:41:570294,15,18,-2,-13,-3,1,-1,1
14:43:41:578474,15,18,-2,-13,-3,1,-1,1
14:43:41:579281,13,3,4,2,-1,-2,-1,0
14:43:41:585294,-4,2,-1,-2,-2,-6,1,-1
14:43:41:592829,-4,2,-1,-2,-2,-6,1,-1
14:43:41:600283,-5,12,6,7,3,-2,-5,-3
14:43:41:616622,4,1,0,1,3,0,2,-1
14:43:41:617440,4,1,0,1,3,0,2,-1
14:43:41:618258,1,-6,0,5,8,2,-1,-1
14:43:41:630272,0,2,7,14,-4,-3,2,3
14:43:41:638557,0,2,7,14,-4,-3,2,3
14:43:41:639317,-16,7,-8,-25,-6,-1,-2,-4
14:43:41:653477,10,9,14,1,-6,1,0,2
14:43:41:654335,10,9,14,1,-6,1,0,2
14:43:41:660269,2,-1,6,12,4,-3,-9,-5
14:43:41:667805,-7,-6,-12,-6,-1,1,1,-2
14:43:41:675399,-7,-6,-12,-6,-1,1,1,-2
14:43:41:682818,-2,-7,-6,-3,-6,-1,1,0
14:43:41:690276,-23,4,-3,15,1,0,-2,-2
14:43:41:698470,-23,4,-3,15,1,0,-2,-2
14:43:41:699267,-13,-8,2,6,-1,-2,4,-1
14:43:41:713507,11,2,10,7,-3,-4,-13,-5
14:43:41:714332,11,2,10,7,-3,-4,-13,-5
14:43:41:720339,-9,-7,1,4,4,2,0,1
14:43:41:727827,-35,0,-1,-9,-2,-3,0,-1
14:43:41:735310,-35,0,-1,-9,-2,-3,0,-1
14:43:41:742822,13,10,-4,-2,-5,-3,0,-1
14:43:41:750308,4,6,-2,-24,3,3,2,2
14:43:41:758496,4,6,-2,-24,3,3,2,2
14:43:41:759267,20,8,6,4,1,-1,0,3
14:43:41:773463,9,0,-11,4,4,-1,4,-5
14:43:41:774287,9,0,-11,4,4,-1,4,-5
14:43:41:780299,9,7,8,1,-1,0,0,0
14:43:41:787796,7,-18,-5,-24,-9,-4,-4,-2
14:43:41:795359,7,-18,-5,-24,-9,-4,-4,-2
14:43:41:802773,0,-23,-2,0,1,1,6,3
14:43:41:810248,0,7,5,16,-2,0,-2,-2
14:43:41:818504,0,7,5,16,-2,0,-2,-2
14:43:41:819293,-7,2,7,8,2,0,1,3
14:43:41:833446,6,14,-2,-3,-1,0,5,1
14:43:41:834309,6,14,-2,-3,-1,0,5,1
14:43:41:840273,-3,-10,-6,-5,-3,0,-2,-2
14:43:41:847788,-15,2,3,0,-1,-2,-1,-1
14:43:41:855351,-15,2,3,0,-1,-2,-1,-1
14:43:41:862815,-15,7,3,-8,-1,-3,0,0
14:43:41:870271,0,-18,4,12,4,2,-1,-1
14:43:41:878551,0,-18,4,12,4,2,-1,-1
14:43:41:879299,-32,-18,-10,-6,-2,0,-1,-6
14:43:41:893968,5,-3,-2,10,-2,-4,-3,1
14:43:41:894796,5,-3,-2,10,-2,-4,-3,1
14:43:41:900282,10,16,-10,15,0,-2,-6,-4
14:43:41:907791,5,-6,-11,-18,-3,0,1,0
14:43:41:915386,5,-6,-11,-18,-3,0,1,0
14:43:41:922779,-10,-6,5,6,1,-4,-1,-2
14:43:41:930287,-12,5,-8,-15,-5,-4,-6,-6
14:43:41:938476,-12,5,-8,-15,-5,-4,-6,-6
14:43:41:939284,3,4,6,-19,-5,-2,-1,-2
14:43:41:953525,8,-19,-12,-2,-1,0,3,0
14:43:41:954332,8,-19,-12,-2,-1,0,3,0
14:43:41:960299,-13,-6,-7,6,0,1,-2,-4
14:43:41:967775,-9,0,-7,1,-1,1,2,-2
14:43:41:975339,-9,0,-7,1,-1,1,2,-2
14:43:41:982921,0,-9,-18,-27,5,1,1,0
14:43:41:990321,0,6,10,2,-4,-3,1,0
14:43:41:998285,0,6,10,2,-4,-3,1,0
14:43:42:5271,11,-12,-13,1,-4,-2,1,-1
14:43:42:13464,-8,-5,-27,-17,6,0,0,-3
14:43:42:14320,-8,-5,-27,-17,6,0,0,-3
14:43:42:20266,0,-14,-3,-4,-7,-2,-2,2
14:43:42:27781,11,5,11,21,2,-1,-8,-4
14:43:42:35330,11,5,11,21,2,-1,-8,-4
14:43:42:42795,-5,13,-4,-3,4,1,2,-5
14:43:42:50258,-16,-6,10,3,2,-4,-3,-1
14:43:42:58509,-16,-6,10,3,2,-4,-3,-1
14:43:42:59300,-5,7,11,10,5,2,-4,-3
14:43:42:73500,0,-18,-1,-4,-2,-3,-4,-3
14:43:42:74317,0,-18,-1,-4,-2,-3,-4,-3
14:43:42:80291,-3,-5,-2,3,-8,-4,-3,-3
14:43:42:87800,-5,-17,0,1,-6,0,4,2
14:43:42:95347,-5,-17,0,1,-6,0,4,2
14:43:42:102789,23,-5,-17,-17,-5,1,-1,3
14:43:42:110280,5,8,6,4,-5,-2,-8,-4
14:43:42:118536,5,8,6,4,-5,-2,-8,-4
14:43:42:119324,9,-5,-11,-3,-4,0,-1,-3
14:43:42:133516,0,10,2,-7,1,1,2,1
14:43:42:134321,0,10,2,-7,1,1,2,1
14:43:42:140293,0,14,2,2,0,0,-1,1
14:43:42:147827,-9,-10,-1,13,10,3,3,0
14:43:42:155363,-9,-10,-1,13,10,3,3,0
14:43:42:162803,-4,5,5,-5,5,1,-1,-1
14:43:42:170283,10,10,7,4,-4,-2,-1,1
14:43:42:178478,10,10,7,4,-4,-2,-1,1
14:43:42:179285,-3,-1,-4,0,-1,-1,-1,-1
14:43:42:193463,7,-6,-10,-6,-1,0,0,0
14:43:42:194288,7,-6,-10,-6,-1,0,0,0
14:43:42:200316,-2,-6,-6,4,-6,-3,-1,-2
14:43:42:207802,8,18,10,-18,-11,-5,0,6
14:43:42:215315,8,18,10,-18,-11,-5,0,6
14:43:42:222810,2,8,14,13,1,-1,-5,-5
14:43:42:230325,0,6,14,-6,-6,-4,-2,-4
14:43:42:238521,0,6,14,-6,-6,-4,-2,-4
14:43:42:239274,-20,5,0,-5,-3,-4,-2,-2
14:43:42:253510,-5,13,8,0,-3,1,-1,0
14:43:42:254297,-5,13,8,0,-3,1,-1,0
14:43:42:260264,-3,2,2,4,4,-1,1,1
14:43:42:267811,-23,-17,-13,-28,-5,-1,-7,-6
14:43:42:275362,-23,-17,-13,-28,-5,-1,-7,-6
14:43:42:282815,3,7,-5,1,-2,-1,0,0
14:43:42:290268,9,16,13,11,-1,-1,2,-1
14:43:42:298502,9,16,13,11,-1,-1,2,-1
14:43:42:299327,8,5,8,-4,-3,-3,-4,1
14:43:42:313464,9,14,2,12,-3,-1,-2,0
14:43:42:314309,9,14,2,12,-3,-1,-2,0
14:43:42:320256,10,-20,-4,19,11,4,-1,-1
14:43:42:327775,-4,14,4,-6,-2,-2,0,0
14:43:42:335336,-4,14,4,-6,-2,-2,0,0
14:43:42:350934,0,-13,-13,-6,-3,0,4,2
14:43:42:351788,0,-25,-23,-9,1,2,1,-3
14:43:42:358510,0,-25,-23,-9,1,2,1,-3
14:43:42:359303,2,0,8,-4,-4,-3,-2,0
14:43:42:373476,2,-5,-1,5,2,-1,-4,-3
14:43:42:374284,2,-5,-1,5,2,-1,-4,-3
14:43:42:380309,-21,0,5,2,-5,0,1,1
14:43:42:387825,-3,7,13,8,-4,-7,-6,0
14:43:42:395345,-3,7,13,8,-4,-7,-6,0
14:43:42:402802,3,-5,10,8,2,1,-3,-4
14:43:42:410274,-18,-13,-7,4,2,3,3,-1
14:43:42:418495,-18,-13,-7,4,2,3,3,-1
14:43:42:419335,3,7,9,-13,-5,-2,1,1
14:43:42:433479,8,-10,-19,-11,-3,-3,1,0
14:43:42:434323,8,-10,-19,-11,-3,-3,1,0
14:43:42:440281,-3,-11,-11,-7,-5,-1,4,-4
14:43:42:455974,5,-12,-8,-4,-1,-4,-6,-3
14:43:42:456800,5,-12,-8,-4,-1,-4,-6,-3
14:43:42:462796,9,6,0,-20,-11,-3,-5,-2
14:43:42:470270,13,-9,3,14,3,2,9,5
14:43:42:478503,13,-9,3,14,3,2,9,5
14:43:42:479328,-9,-9,16,7,10,2,3,0
14:43:42:493506,-4,-1,-4,-3,3,3,2,3
14:43:42:494274,-4,-1,-4,-3,3,3,2,3
14:43:42:508469,3,6,6,5,-9,-4,-4,-3
14:43:42:509249,-7,3,0,6,4,4,8,-1
14:43:42:515326,-7,3,0,6,4,4,8,-1
14:43:42:522853,-6,-4,-15,0,-1,-5,-5,-3
14:43:42:530314,2,22,-3,-2,-5,-3,-6,-2
14:43:42:538503,2,22,-3,-2,-5,-3,-6,-2
14:43:42:539330,-2,-10,-17,-3,-3,1,-2,-3
14:43:42:553465,10,19,6,-4,6,1,-7,-5
14:43:42:554274,10,19,6,-4,6,1,-7,-5
14:43:42:560289,1,-5,7,1,2,-2,-5,-1
14:43:42:567819,5,-18,-8,-4,-1,-1,-3,-1
14:43:42:575337,5,-18,-8,-4,-1,-1,-3,-1
14:43:42:582796,-2,7,9,4,-1,-1,-1,-2
14:43:42:590278,-9,-21,-5,-8,1,-1,-2,-1
14:43:42:597870,-9,-21,-5,-8,1,-1,-2,-1
14:43:42:605254,15,20,-4,-21,1,4,5,4
14:43:42:613499,-4,-17,-7,4,-1,-3,-2,0
14:43:42:614319,-4,-17,-7,4,-1,-3,-2,0
14:43:42:620324,-2,3,0,9,1,1,1,1
14:43:42:636030,1,1,16,4,-8,-2,-1,-1
14:43:42:636817,1,1,16,4,-8,-2,-1,-1
14:43:42:642809,3,1,9,7,-2,-4,-6,-5
14:43:42:650284,-1,3,-12,-2,-8,-4,-2,0
14:43:42:657893,-1,3,-12,-2,-8,-4,-2,0
14:43:42:665302,0,-8,-12,-12,5,1,3,3
14:43:42:673498,-8,4,8,-3,-5,-3,-4,-2
14:43:42:674350,-8,4,8,-3,-5,-3,-4,-2
14:43:42:680319,-9,4,-3,-2,-7,-3,-1,0
14:43:42:696025,-5,2,3,-10,-1,1,2,0
14:43:42:696850,-5,2,3,-10,-1,1,2,0
14:43:42:702797,-7,-24,-5,4,-2,0,-2,-3
14:43:42:710319,2,5,12,13,3,2,2,0
14:43:42:717915,2,5,12,13,3,2,2,0
14:43:42:725298,-6,-1,-24,-20,-7,-5,-4,-1
14:43:42:733959,12,3,-8,4,5,-2,-2,-3
14:43:42:740994,12,3,-8,4,5,-2,-2,-3
14:43:42:741783,5,-31,11,11,1,-2,-3,-1
14:43:42:755698,-8,-4,-7,-3,-6,-4,1,1
14:43:42:763487,-8,-4,-7,-3,-6,-4,1,1
14:43:42:764249,8,18,-12,5,3,0,2,3
14:43:42:770300,5,-17,-3,1,-2,-1,-2,-3
14:43:42:777837,5,-17,-3,1,-2,-1,-2,-3
14:43:42:785346,1,-19,-8,8,-3,-1,0,-2
14:43:42:793461,-1,10,5,-9,-1,2,0,-2
14:43:42:794282,-1,10,5,-9,-1,2,0,-2
14:43:42:800280,-1,14,0,0,0,0,2,4
14:43:42:815981,-4,-14,-22,-8,-2,1,-5,-6
14:43:42:816803,-4,-14,-22,-8,-2,1,-5,-6
14:43:42:822811,-7,-2,-3,1,-2,-4,-2,-3
14:43:42:830348,2,-10,-11,4,3,-1,-1,2
14:43:42:846001,2,-10,-11,4,3,-1,-1,2
14:43:42:846808,12,22,0,-4,0,0,-1,-4
14:43:42:853482,-1,-9,-2,-5,6,-1,3,1
14:43:42:854322,-1,-9,-2,-5,6,-1,3,1
14:43:42:860290,-10,-5,-2,4,-4,-2,-3,-2
14:43:42:875948,-4,8,4,2,-3,-4,-3,-2
14:43:42:876814,-4,8,4,2,-3,-4,-3,-2
14:43:42:907298,-2,-1,-1,-10,3,2,0,2
14:43:42:908076,-2,3,-2,-7,-6,-2,-3,2
14:43:42:908907,-2,3,-2,-7,-6,-2,-3,2
14:43:42:909792,-4,6,-1,-16,-3,1,0,-3
14:43:42:913447,-2,-18,-3,-3,3,1,2,3
14:43:42:914331,-2,-18,-3,-3,3,1,2,3
14:43:42:920277,4,-2,5,9,2,0,-2,-4
14:43:42:935976,-1,-13,-3,13,6,0,0,-2
14:43:42:936793,-1,-13,-3,13,6,0,0,-2
14:43:42:942811,0,-32,-23,-10,-5,-2,-3,-1
14:43:42:950331,-8,13,10,5,2,1,3,0
14:43:42:957818,-8,13,10,5,2,1,3,0
14:43:42:965279,8,5,11,-10,-5,-2,0,-1
14:43:42:973515,0,-22,3,8,7,2,-1,-3
14:43:42:974333,0,-22,3,8,7,2,-1,-3
14:43:42:980303,-9,-5,9,12,3,0,3,3
14:43:43:4190,-7,8,-4,5,2,-3,-2,-5
14:43:43:4955,-7,8,-4,5,2,-3,-2,-5
14:43:43:5788,-1,21,17,3,-1,-1,0,-3
14:43:43:10371,5,9,-1,-11,-8,-4,1,2
14:43:43:17879,5,9,-1,-11,-8,-4,1,2
14:43:43:25306,9,1,0,3,1,-4,-2,0
14:43:43:33501,4,11,-5,-5,-3,2,-1,0
14:43:43:34327,4,11,-5,-5,-3,2,-1,0
14:43:43:40292,-9,-14,3,6,2,-1,2,2
14:43:43:55966,-7,-18,-4,-2,-6,-5,-3,-4
14:43:43:56811,-7,-18,-4,-2,-6,-5,-3,-4
14:43:43:62788,-11,20,15,14,6,-1,-2,-3
14:43:43:70266,5,13,-23,-5,-6,-3,-8,-3
14:43:43:77814,5,13,-23,-5,-6,-3,-8,-3
14:43:43:85284,-25,2,6,-6,-4,-1,1,0
14:43:43:93470,-20,6,-6,-3,0,1,-2,-3
14:43:43:94340,-20,6,-6,-3,0,1,-2,-3
14:43:43:100262,13,-2,-9,5,-1,-2,-3,-1
14:43:43:116481,4,4,2,-2,-7,-3,-3,-5
14:43:43:117261,4,4,2,-2,-7,-3,-3,-5
14:43:43:122778,0,32,24,-22,-14,-1,-1,-1
14:43:43:130251,5,7,4,3,1,1,1,1
14:43:43:137859,5,7,4,3,1,1,1,1
14:43:43:145342,5,-14,-10,2,-4,-2,-2,1
14:43:43:153542,-5,-15,19,-3,0,-3,-1,1
14:43:43:154307,-5,-15,19,-3,0,-3,-1,1
14:43:43:160324,4,-7,-6,1,5,2,2,1
14:43:43:176007,17,-4,-8,-6,3,0,-1,0
14:43:43:176801,17,-4,-8,-6,3,0,-1,0
14:43:43:182798,-1,-18,-23,-12,2,2,1,-3
14:43:43:190298,-5,-4,-9,0,1,-2,0,0
14:43:43:197849,-5,-4,-9,0,1,-2,0,0
14:43:43:205314,-8,-2,2,5,-2,-2,-2,-1
14:43:43:213464,-3,14,-4,1,4,-1,-3,1
14:43:43:214264,-3,14,-4,1,4,-1,-3,1
14:43:43:220299,-1,-1,3,3,3,-1,-2,-1
14:43:43:235981,-1,-1,3,3,3,-1,-2,-1
14:43:43:236802,0,2,8,-1,-4,1,1,1
14:43:43:242808,3,7,-20,-4,1,1,-1,-1
14:43:43:258519,3,7,-20,-4,1,1,-1,-1
14:43:43:259312,-15,5,0,2,1,3,2,0
14:43:43:265318,5,-16,-9,-1,-2,-3,0,1
14:43:43:281716,5,-16,-9,-1,-2,-3,0,1
14:43:43:282474,1,-5,18,6,-1,-2,1,-1
14:43:43:283269,3,6,11,8,-9,-6,-8,-6
14:43:43:296014,3,6,11,8,-9,-6,-8,-6
14:43:43:296797,0,-8,4,-5,3,1,1,-1
14:43:43:302813,-7,-37,-6,-7,-3,2,1,3
14:43:43:318485,-7,-37,-6,-7,-3,2,1,3
14:43:43:319294,-9,0,-16,-11,-10,-5,-5,-5
14:43:43:325254,-11,4,0,-13,0,-1,0,1
14:43:43:333504,-11,4,0,-13,0,-1,0,1
14:43:43:334294,-15,-16,2,-4,-2,2,-1,-1
14:43:43:340281,1,6,23,6,4,1,-4,-3
14:43:43:355984,1,6,23,6,4,1,-4,-3
14:43:43:356800,6,-2,-10,2,-4,-3,0,0
14:43:43:362808,-7,-7,-6,-10,-1,-3,-1,-3
14:43:43:378490,-7,-7,-6,-10,-1,-3,-1,-3
14:43:43:379264,-6,-2,-12,-2,-2,1,0,0
14:43:43:385315,-9,7,-8,8,3,2,-1,-1
14:43:43:393511,-9,7,-8,8,3,2,-1,-1
14:43:43:394299,4,3,3,-5,-2,-5,-1,-2
14:43:43:400307,6,1,-10,-3,1,-2,-2,-3
14:43:43:416016,6,1,-10,-3,1,-2,-2,-3
14:43:43:416823,-3,-9,2,2,-2,-2,5,0
14:43:43:422808,0,7,0,5,4,1,0,-3
14:43:43:438500,0,7,0,5,4,1,0,-3
14:43:43:439288,6,-2,-6,1,-1,-2,-5,1
14:43:43:454198,-1,-6,-3,1,-5,-5,-5,-2
14:43:43:455039,-1,-6,-3,1,-5,-5,-5,-2
14:43:43:455817,-9,-7,-6,-7,-2,0,-3,-5
14:43:43:460343,0,5,-2,-4,-6,-5,-4,-2
14:43:43:475999,0,5,-2,-4,-6,-5,-4,-2
14:43:43:476810,13,0,-4,-1,-1,-3,-12,-4
14:43:43:482798,10,-2,8,7,8,5,2,2
14:43:43:498508,10,-2,8,7,8,5,2,2
14:43:43:499301,1,5,1,1,5,3,2,0
14:43:43:505277,-5,0,-1,0,-6,-2,2,1
14:43:43:513516,-5,0,-1,0,-6,-2,2,1
14:43:43:514334,-3,11,2,6,5,-1,2,1
14:43:43:520283,7,0,-4,-2,-1,0,-7,1
14:43:43:536016,7,0,-4,-2,-1,0,-7,1
14:43:43:536790,-1,10,4,5,-1,-1,-10,-5
14:43:43:542804,8,0,-2,-2,1,3,4,1
14:43:43:558525,8,0,-2,-2,1,3,4,1
14:43:43:559309,4,18,5,-2,-1,1,5,-1
14:43:43:565281,-6,-1,0,-5,-2,0,3,1
14:43:43:573264,-6,-1,0,-5,-2,0,3,1
14:43:43:588426,9,-2,6,3,5,-1,2,1
14:43:43:589221,-3,3,-1,0,-4,-1,4,-1
14:43:43:596016,-3,3,-1,0,-4,-1,4,-1
14:43:43:596789,-10,-1,3,-1,-5,-2,9,1
14:43:43:602839,-15,-35,-8,7,-2,-5,-8,-7
14:43:43:618479,-15,-35,-8,7,-2,-5,-8,-7
14:43:43:619291,8,6,1,1,1,7,10,4
14:43:43:625278,-8,8,3,8,1,-4,-1,-5
14:43:43:633486,-8,8,3,8,1,-4,-1,-5
14:43:43:634293,-6,-13,-14,-7,-6,-3,-2,-3
14:43:43:647819,6,6,2,-9,-9,0,3,3
14:43:43:655976,6,6,2,-9,-9,0,3,3
14:43:43:656786,0,-6,5,3,3,-2,-4,-2
14:43:43:670340,10,1,1,-2,-2,-1,5,1
14:43:43:678487,10,1,1,-2,-2,-1,5,1
14:43:43:679280,4,8,1,-6,1,-1,-4,1
14:43:43:685294,-4,-4,7,-11,-3,-4,-12,-6
14:43:43:693491,-4,-4,7,-11,-3,-4,-12,-6
14:43:43:694310,-1,-13,-3,1,-5,-1,-5,-1
14:43:43:707848,-1,6,-7,-1,-1,-3,-6,-2
14:43:43:716004,-1,6,-7,-1,-1,-3,-6,-2
14:43:43:716817,1,0,0,-1,1,-2,-1,0
14:43:43:722824,0,12,9,1,3,1,5,0
14:43:43:738536,0,12,9,1,3,1,5,0
14:43:43:739326,-3,16,1,-4,-6,-5,-5,0
14:43:43:745279,-8,-13,-10,-11,-2,1,3,3
14:43:43:753487,-8,-13,-10,-11,-2,1,3,3
14:43:43:754275,-3,-15,-22,-4,-2,-4,0,2
14:43:43:767830,3,8,-9,0,4,3,0,1
14:43:43:776068,3,8,-9,0,4,3,0,1
14:43:43:776836,-6,-3,0,0,-3,-1,2,-3
14:43:43:782829,-2,5,2,5,-2,1,0,-1
14:43:43:798499,-2,5,2,5,-2,1,0,-1
14:43:43:799320,-3,-9,-2,2,2,1,-2,-2
14:43:43:805280,0,4,-9,0,-3,-1,5,-1
14:43:43:813462,0,4,-9,0,-3,-1,5,-1
14:43:43:814277,2,-13,-6,0,0,1,0,-3
14:43:43:827807,7,8,13,2,0,0,-4,3
14:43:43:836015,7,8,13,2,0,0,-4,3
14:43:43:836812,0,0,-9,-2,0,0,1,-1
14:43:43:842795,-3,-7,-1,-4,-3,-2,-1,1
14:43:43:858985,-3,-7,-1,-4,-3,-2,-1,1
14:43:43:859809,-1,7,12,5,0,3,0,0
14:43:43:865281,-7,18,17,1,-1,-3,-5,-5
14:43:43:873534,-7,18,17,1,-1,-3,-5,-5
14:43:43:874326,-4,-9,5,-9,-7,-2,2,-3
14:43:43:887800,-5,-28,-10,-2,-3,-2,1,-1
14:43:43:896024,-5,-28,-10,-2,-3,-2,1,-1
14:43:43:896842,-4,-5,-14,10,-3,-5,-8,-3
14:43:43:902815,3,13,1,3,-2,-2,-2,-3
14:43:43:918513,3,13,1,3,-2,-2,-2,-3
14:43:43:919308,0,-5,18,-5,-2,-4,-4,-2
14:43:43:925289,-23,-7,-7,-1,0,-1,-2,-3
14:43:43:933511,-23,-7,-7,-1,0,-1,-2,-3
14:43:43:934356,0,-5,5,-3,-1,4,6,4
14:43:43:947833,3,14,5,-4,1,-1,-2,1
14:43:43:956039,3,14,5,-4,1,-1,-2,1
14:43:43:956823,-1,3,-9,3,5,-1,1,1
14:43:43:962807,2,-27,-12,1,-1,-1,1,0
14:43:43:978497,2,-27,-12,1,-1,-1,1,0
14:43:43:979302,4,11,-1,-11,-1,-2,2,0
14:43:43:985275,5,13,13,3,3,-2,2,-1
14:43:43:993511,5,13,13,3,3,-2,2,-1
14:43:43:994288,-4,8,11,4,-5,-3,-9,-4
14:43:44:7809,7,-6,-2,-1,-1,-2,-6,-3
14:43:44:16012,7,-6,-2,-1,-1,-2,-6,-3
14:43:44:16809,-12,4,1,-2,-4,-3,-11,-8
14:43:44:22817,-1,-4,-13,-5,-4,1,-6,-3
14:43:44:38495,-1,-4,-13,-5,-4,1,-6,-3
14:43:44:39273,7,2,-18,-1,-1,-1,7,0
14:43:44:45300,8,10,9,5,0,1,-1,0
14:43:44:53505,8,10,9,5,0,1,-1,0
14:43:44:54308,5,-5,-5,-6,-6,2,4,3
14:43:44:67864,-9,-18,-21,-3,-5,-1,2,1
14:43:44:75986,-9,-18,-21,-3,-5,-1,2,1
14:43:44:76831,-5,0,10,-5,-4,-5,-2,-2
14:43:44:82810,-3,-9,1,-12,-4,1,4,2
14:43:44:98502,-3,-9,1,-12,-4,1,4,2
14:43:44:99264,-3,0,2,-1,-6,-4,-9,-5
14:43:44:114117,6,18,14,12,7,1,-3,0
14:43:44:114941,6,18,14,12,7,1,-3,0
14:43:44:115819,17,9,25,6,0,3,5,6
14:43:44:127817,-4,19,12,0,0,-2,-3,-4
14:43:44:136052,-4,19,12,0,0,-2,-3,-4
14:43:44:136834,2,5,0,2,4,-1,-3,0
14:43:44:142851,1,-11,-13,-3,-5,-5,-1,3
14:43:44:158513,1,-11,-13,-3,-5,-5,-1,3
14:43:44:159313,-9,-27,-13,0,3,0,1,-2
14:43:44:165287,0,-4,-4,-5,-2,-2,-3,-2
14:43:44:173534,0,-4,-4,-5,-2,-2,-3,-2
14:43:44:174329,-9,-9,-19,-2,6,1,-4,-1
14:43:44:187814,8,-18,-8,3,-1,-3,2,1
14:43:44:196014,8,-18,-8,3,-1,-3,2,1
14:43:44:196812,2,15,7,-3,-5,2,2,-2
14:43:44:202843,-2,0,4,8,3,-2,0,1
14:43:44:218513,-2,0,4,8,3,-2,0,1
14:43:44:219305,-2,4,-1,-4,-4,-3,-4,-1
14:43:44:225281,-2,10,-2,9,1,2,1,-2
14:43:44:233535,-2,10,-2,9,1,2,1,-2
14:43:44:234322,-19,0,0,-4,-8,-4,-4,1
14:43:44:247851,1,-2,13,-9,-4,-1,2,4
14:43:44:256052,1,-2,13,-9,-4,-1,2,4
14:43:44:256818,7,-13,-11,-7,4,0,2,3
14:43:44:262811,-22,-11,12,-3,2,1,-6,-4
14:43:44:278515,-22,-11,12,-3,2,1,-6,-4
14:43:44:279316,3,-10,-7,-4,1,3,3,0
14:43:44:285277,5,10,-5,-5,1,2,9,0
14:43:44:293538,5,10,-5,-5,1,2,9,0
14:43:44:294296,-2,0,-1,10,6,3,2,-5
14:43:44:307805,2,-39,-29,1,-7,-5,-4,-2
14:43:44:316001,2,-39,-29,1,-7,-5,-4,-2
14:43:44:316811,0,6,4,-3,3,-2,-1,2
14:43:44:322840,0,11,-16,-2,0,-2,2,-2
14:43:44:338511,0,11,-16,-2,0,-2,2,-2
14:43:44:339280,2,-10,-4,-5,-8,-5,-5,-3
14:43:44:345274,1,10,13,-1,-4,-4,-10,-2
14:43:44:353509,1,10,13,-1,-4,-4,-10,-2
14:43:44:354297,-7,21,11,4,3,-1,-3,0
14:43:44:367832,0,5,-10,-26,-11,-2,1,-1
14:43:44:376019,0,5,-10,-26,-11,-2,1,-1
14:43:44:376799,6,16,12,-3,-1,0,3,-1
14:43:44:382804,1,3,2,3,0,-2,-1,1
14:43:44:398506,1,3,2,3,0,-2,-1,1
14:43:44:399274,-3,-18,-16,-9,-10,-2,-1,0
14:43:44:405324,1,4,9,1,2,1,0,0
14:43:44:413469,1,4,9,1,2,1,0,0
14:43:44:414275,-5,-34,-5,-1,3,-1,-3,-2
14:43:44:427847,-13,-6,-2,-16,-7,-1,-1,-2
14:43:44:435995,-13,-6,-2,-16,-7,-1,-1,-2
14:43:44:436804,12,10,-1,4,-3,-2,3,1
14:43:44:442812,1,11,-2,3,1,-3,-8,-7
14:43:44:458458,1,11,-2,3,1,-3,-8,-7
14:43:44:459273,1,3,-12,-10,0,-2,-3,-2
14:43:44:465321,-4,10,0,0,-3,-4,6,-1
14:43:44:473477,-4,10,0,0,-3,-4,6,-1
14:43:44:474277,3,11,7,18,2,1,3,-1
14:43:44:487815,-8,19,19,1,-4,-5,-4,-2
14:43:44:495968,-8,19,19,1,-4,-5,-4,-2
14:43:44:496800,0,-8,-8,6,1,1,-2,-2
14:43:44:510280,-1,-16,-9,0,0,-3,-4,-3
14:43:44:518509,-1,-16,-9,0,0,-3,-4,-3
14:43:44:519325,-5,5,2,5,2,0,-4,-3
14:43:44:525287,5,0,-13,-5,1,2,-4,-1
14:43:44:532808,5,0,-13,-5,1,2,-4,-1
14:43:44:540327,5,6,3,-1,-4,-3,0,2
14:43:44:547859,2,-9,2,0,5,3,5,4
14:43:44:555999,2,-9,2,0,5,3,5,4
14:43:44:556817,-1,-3,-13,-1,-1,-3,-5,-3
14:43:44:570289,2,7,16,17,8,5,1,2
14:43:44:578466,2,7,16,17,8,5,1,2
14:43:44:579278,-4,-18,-4,-10,-6,-5,-1,-1
14:43:44:585314,2,0,-5,5,9,3,0,-1
14:43:44:592843,2,0,-5,5,9,3,0,-1
14:43:44:600267,-14,-6,7,-4,-1,-2,-4,-2
14:43:44:607824,-6,-25,7,0,-4,-5,-3,-4
14:43:44:616712,-6,-25,7,0,-4,-5,-3,-4
14:43:44:617504,-8,13,5,-6,-5,-2,-3,-1
14:43:44:630320,3,-7,5,1,-3,-1,-3,-4
14:43:44:638500,3,-7,5,1,-3,-1,-3,-4
14:43:44:639261,-2,-2,-4,0,4,-6,-14,-7
14:43:44:645271,-2,6,-15,-15,5,3,2,1
14:43:44:652828,-2,6,-15,-15,5,3,2,1
14:43:44:677287,3,8,12,5,-3,1,3,-1
14:43:44:678084,-1,-2,-10,5,2,0,4,-2
14:43:44:678927,-1,-2,-10,5,2,0,4,-2
14:43:44:679724,4,0,-1,-2,-7,-2,0,2
14:43:44:690297,2,2,-6,-7,-4,0,-4,1
14:43:44:698540,2,2,-6,-7,-4,0,-4,1
14:43:44:699313,-1,-3,-4,-2,-10,-3,-4,-2
14:43:44:705306,-6,-7,3,-11,-6,-1,-2,3
14:43:44:712885,-6,-7,3,-11,-6,-1,-2,3
14:43:44:720325,-23,-42,-31,-9,0,0,-9,-5
14:43:44:727808,1,0,-2,6,-8,-5,-2,-2
14:43:44:736013,1,0,-2,6,-8,-5,-2,-2
14:43:44:736814,1,23,15,1,2,0,5,0
14:43:44:750307,-2,-17,-7,7,-4,-8,-9,-2
14:43:44:758532,-2,-17,-7,7,-4,-8,-9,-2
14:43:44:759336,2,-9,-10,-1,3,2,6,1
14:43:44:765324,6,18,10,4,1,2,5,1
14:43:44:772817,6,18,10,4,1,2,5,1
14:43:44:780319,-6,-43,-34,-22,-1,-2,-1,-2
14:43:44:787831,-3,-4,0,-2,6,1,2,0
14:43:44:796026,-3,-4,0,-2,6,1,2,0
14:43:44:796837,-12,0,18,13,-2,0,2,-3
14:43:44:810324,1,11,-8,-7,0,-2,-4,0
14:43:44:818500,1,11,-8,-7,0,-2,-4,0
14:43:44:819280,2,14,12,4,-3,2,10,-1
14:43:44:825370,3,-4,-6,-1,-7,-2,0,1
14:43:44:832852,3,-4,-6,-1,-7,-2,0,1
14:43:44:840296,-4,8,-7,11,6,2,-3,-3
14:43:44:847839,5,-16,-3,-4,-6,-2,6,-1
14:43:44:856001,5,-16,-3,-4,-6,-2,6,-1
14:43:44:856806,11,14,2,-6,-3,-4,-6,1
14:43:44:870362,-6,-12,-1,0,-2,1,-3,-4
14:43:44:878495,-6,-12,-1,0,-2,1,-3,-4
14:43:44:879269,0,-7,8,7,5,3,5,5
14:43:44:885267,1,14,10,-7,-7,-5,-7,-2
14:43:44:892844,1,14,10,-7,-7,-5,-7,-2
14:43:44:900293,3,1,-9,0,-1,-3,-5,-2
14:43:44:907813,-10,-36,-24,4,5,4,3,-2
14:43:44:916060,-10,-36,-24,4,5,4,3,-2
14:43:44:916822,9,9,3,-5,-3,-3,-1,2
14:43:44:930295,-8,14,6,-1,-3,-6,-8,-4
14:43:44:938520,-8,14,6,-1,-3,-6,-8,-4
14:43:44:939328,8,-1,-5,-3,2,4,5,1
14:43:44:945305,-3,1,-7,1,-1,-1,-1,-1
14:43:44:952918,-3,1,-7,1,-1,-1,-1,-1
14:43:44:960319,-5,5,1,-8,-9,-3,-3,-1
14:43:44:967825,-3,-27,-29,-5,13,2,0,-3
14:43:44:976005,-3,-27,-29,-5,13,2,0,-3
14:43:44:976844,-7,5,11,-19,-7,-3,-4,-2
14:43:44:990308,-2,1,11,10,12,1,1,0
14:43:44:998521,-2,1,11,10,12,1,1,0
14:43:44:999293,4,9,1,12,0,-4,-4,-4
14:43:45:5325,-10,16,25,9,-9,-5,-2,-1
14:43:45:12860,-10,16,25,9,-9,-5,-2,-1
14:43:45:20326,3,0,-4,-5,-2,-2,-3,1
14:43:45:27810,11,-6,-13,-4,1,0,-11,-1
14:43:45:35979,11,-6,-13,-4,1,0,-11,-1
14:43:45:36802,-24,-4,12,2,1,2,1,-2
14:43:45:50278,4,-14,2,-2,-3,-3,-2,1
14:43:45:58521,4,-14,2,-2,-3,-3,-2,1
14:43:45:59294,4,5,-4,3,0,-2,-5,-1
14:43:45:65302,1,14,4,14,-15,-3,0,0
14:43:45:72830,1,14,4,14,-15,-3,0,0
14:43:45:80277,-1,-14,1,4,5,2,3,1
14:43:45:87822,-3,2,2,-5,-7,0,-3,-3
14:43:45:96000,-3,2,2,-5,-7,0,-3,-3
14:43:45:96803,10,5,4,6,2,-2,-2,1
14:43:45:119195,-7,-32,-7,-3,-4,-6,-7,-6
14:43:45:119991,-7,-32,-7,-3,-4,-6,-7,-6
14:43:45:120817,7,-6,-16,-15,-1,1,2,0
14:43:45:125303,3,6,-7,-4,0,-2,-1,-1
14:43:45:132832,3,6,-7,-4,0,-2,-1,-1
14:43:45:140328,4,-13,-4,5,-4,-1,-1,2
14:43:45:147817,0,15,3,1,-2,1,7,1
14:43:45:155992,0,15,3,1,-2,1,7,1
14:43:45:156819,2,8,0,-6,-6,1,-1,0
14:43:45:170303,-1,27,7,-3,-2,1,5,2
14:43:45:178474,-1,27,7,-3,-2,1,5,2
14:43:45:179276,-1,4,2,3,-7,-7,-2,-5
14:43:45:185315,3,12,13,3,9,8,6,2
14:43:45:192830,3,12,13,3,9,8,6,2
14:43:45:200287,-3,6,-1,-2,-1,-2,-4,-4
14:43:45:207814,5,-14,-14,-14,-3,-3,-7,-1
14:43:45:215993,5,-14,-14,-14,-3,-3,-7,-1
14:43:45:216822,-2,-2,5,0,1,-3,1,-2
14:43:45:230355,2,-6,7,12,12,2,-3,-6
14:43:45:238520,2,-6,7,12,12,2,-3,-6
14:43:45:239280,1,9,-5,-13,3,1,-4,-1
14:43:45:245281,-3,-8,1,-9,-4,-3,-2,1
14:43:45:252823,-3,-8,1,-9,-4,-3,-2,1
14:43:45:260257,7,13,-1,1,9,0,2,2
14:43:45:267818,0,-5,-8,-12,-1,-2,-2,-2
14:43:45:276019,0,-5,-8,-12,-1,-2,-2,-2
14:43:45:276829,-3,-10,-13,-5,4,4,-1,-1
14:43:45:290272,3,10,5,-2,-8,-4,-2,-3
14:43:45:298520,3,10,5,-2,-8,-4,-2,-3
14:43:45:299304,-3,-12,-2,4,-5,-5,-5,-5
14:43:45:305274,-5,-2,-11,-5,-4,-3,2,0
14:43:45:312840,-5,-2,-11,-5,-4,-3,2,0
14:43:45:320298,-17,-14,14,7,-2,0,1,1
14:43:45:327829,-2,2,2,0,1,1,4,1
14:43:45:336048,-2,2,2,0,1,1,4,1
14:43:45:336809,2,4,15,5,-1,1,4,5
14:43:45:350280,-2,-2,1,-2,-2,2,-3,1
14:43:45:358526,-2,-2,1,-2,-2,2,-3,1
14:43:45:359315,-1,6,1,7,5,-5,-17,-5
14:43:45:365306,0,5,-5,1,3,-1,-2,0
14:43:45:372872,0,5,-5,1,3,-1,-2,0
14:43:45:380309,6,-19,-7,-5,-9,-2,3,4
14:43:45:387818,-8,-3,15,6,-1,0,-2,-5
14:43:45:395979,-8,-3,15,6,-1,0,-2,-5
14:43:45:396849,-4,5,0,-7,-7,-6,2,-2
14:43:45:410306,2,-10,-10,2,-3,2,3,0
14:43:45:418572,2,-10,-10,2,-3,2,3,0
14:43:45:419318,-10,-12,0,3,-5,-1,-9,-3
14:43:45:425317,-1,-8,-10,2,-7,-4,-1,-5
14:43:45:432872,-1,-8,-10,2,-7,-4,-1,-5
14:43:45:440353,5,4,4,6,9,2,1,2
14:43:45:447832,-3,-13,-8,-6,2,2,0,3
14:43:45:455326,-3,-13,-8,-6,2,2,0,3
14:43:45:462887,-3,3,-3,-3,-5,-2,3,-3
14:43:45:470355,2,8,-10,-1,-4,-6,-8,-9
14:43:45:478503,2,8,-10,-1,-4,-6,-8,-9
14:43:45:479285,1,-5,-14,-8,1,2,1,-1
14:43:45:493485,-3,-2,7,-4,-7,-1,1,2
14:43:45:494300,-3,-2,7,-4,-7,-1,1,2
14:43:45:500286,4,0,6,-7,-8,-6,-8,-8
14:43:45:507770,1,-3,8,2,-1,-1,5,2
14:43:45:515348,1,-3,8,2,-1,-1,5,2
14:43:45:522816,3,-4,-6,-14,6,4,8,4
14:43:45:530299,-11,-14,2,10,8,5,-4,1
14:43:45:538535,-11,-14,2,10,8,5,-4,1
14:43:45:539327,-2,13,5,5,-4,-2,2,3
14:43:45:553949,0,-22,-11,5,13,4,2,1
14:43:45:554814,0,-22,-11,5,13,4,2,1
14:43:45:560310,-2,6,0,3,-3,2,3,-3
14:43:45:567823,2,5,-4,-3,-6,-3,-1,-1
14:43:45:575366,2,5,-4,-3,-6,-3,-1,-1
14:43:45:582819,-22,-7,-6,-3,1,4,-1,-2
14:43:45:590286,6,8,-8,-4,-2,-2,7,2
14:43:45:598526,6,8,-8,-4,-2,-2,7,2
14:43:45:599335,-2,6,15,-1,-6,-3,-3,-1
14:43:45:621654,-1,-2,-9,-17,-5,0,0,-1
14:43:45:622471,-1,-2,-9,-17,-5,0,0,-1
14:43:45:623264,2,-3,-8,3,1,-1,4,2
14:43:45:627826,2,12,2,-3,-3,-1,-2,1
14:43:45:635377,2,12,2,-3,-3,-1,-2,1
14:43:45:642863,5,8,5,-1,1,-1,1,3
14:43:45:650299,-14,-5,-7,-8,-7,-1,-7,-6
14:43:45:658511,-14,-5,-7,-8,-7,-1,-7,-6
14:43:45:659288,1,-9,-6,5,5,2,3,2
14:43:45:673510,-1,8,13,-2,-3,-2,-3,-2
14:43:45:674319,-1,8,13,-2,-3,-2,-3,-2
14:43:45:680283,3,4,0,-4,-3,0,-1,-3
14:43:45:687835,2,-2,6,3,1,0,-4,-1
14:43:45:695366,2,-2,6,3,1,0,-4,-1
14:43:45:702858,-3,-2,-9,0,-2,-6,-15,-6
14:43:45:710306,2,-29,-14,-2,-4,-6,-2,2
14:43:45:718535,2,-29,-14,-2,-4,-6,-2,2
14:43:45:719297,0,-3,-9,0,1,1,-1,2
14:43:45:733499,0,36,12,11,1,1,-4,-3
14:43:45:734332,0,36,12,11,1,1,-4,-3
14:43:45:740325,4,-4,1,-4,-9,-10,-8,-4
14:43:45:747829,6,3,-13,5,6,5,9,5
14:43:45:755376,6,3,-13,5,6,5,9,5
14:43:45:762823,11,1,17,4,1,4,6,8
14:43:45:770307,-2,10,13,-2,-3,-3,1,-2
14:43:45:778490,-2,10,13,-2,-3,-3,1,-2
14:43:45:779290,0,5,0,0,1,-1,1,2
14:43:45:793498,-1,0,-5,-3,-9,-10,-12,-5
14:43:45:794293,-1,0,-5,-3,-9,-10,-12,-5
14:43:45:800299,-2,20,10,11,8,6,0,-4
14:43:45:807840,-3,3,-13,-8,-1,0,-9,-7
14:43:45:815343,-3,3,-13,-8,-1,0,-9,-7
14:43:45:822842,-6,-11,-17,-21,-8,-8,-14,-4
14:43:45:830348,7,2,12,-7,0,4,4,3
14:43:45:838505,7,2,12,-7,0,4,4,3
14:43:45:839301,4,-6,-7,-1,-4,-2,-6,-5
14:43:45:853503,3,0,9,1,-4,-3,4,2
14:43:45:854294,3,0,9,1,-4,-3,4,2
14:43:45:860251,-7,-6,-9,-6,-8,-2,5,1
14:43:45:867848,2,18,5,-5,0,-1,-5,-8
14:43:45:883466,2,18,5,-5,0,-1,-5,-8
14:43:45:884259,-5,-14,-7,-5,-5,-4,-4,-5
14:43:45:890326,-4,-9,-21,-5,-1,-1,-2,0
14:43:45:898487,-4,-9,-21,-5,-1,-1,-2,0
14:43:45:899320,-2,-30,-10,2,-1,1,7,0
14:43:45:913438,-11,-15,-5,-10,-2,0,2,-2
14:43:45:914270,-11,-15,-5,-10,-2,0,2,-2
14:43:45:920326,-9,-5,-9,7,11,4,-4,-1
14:43:45:927847,-4,3,6,5,2,-1,4,2
14:43:45:935367,-4,3,6,5,2,-1,4,2
14:43:45:951001,-10,9,16,1,-3,-1,-1,-3
14:43:45:951837,-7,-33,-5,1,-6,-5,-2,-2
14:43:45:958478,-7,-33,-5,1,-6,-5,-2,-2
14:43:45:959288,8,18,9,10,10,4,2,1
14:43:45:973487,-2,13,0,8,7,0,2,-2
14:43:45:974277,-2,13,0,8,7,0,2,-2
14:43:45:980302,-4,-8,-9,-4,-1,-1,-2,-4
14:43:45:996006,3,-1,-2,6,2,1,7,2
14:43:45:996829,3,-1,-2,6,2,1,7,2
14:43:46:2817,0,3,7,1,-2,-2,-1,-2
14:43:46:10294,-3,6,10,5,1,-1,-5,-1
14:43:46:18482,-3,6,10,5,1,-1,-5,-1
14:43:46:19266,5,-3,-7,-7,-8,-6,0,3
14:43:46:33498,1,-11,-14,-21,-7,-3,-7,-4
14:43:46:34328,1,-11,-14,-21,-7,-3,-7,-4
14:43:46:40316,4,1,3,0,2,0,7,3
14:43:46:47835,2,-16,2,3,-4,3,3,4
14:43:46:55344,2,-16,2,3,-4,3,3,4
14:43:46:62843,-2,8,-5,3,4,-1,-4,-4
14:43:46:70310,-4,1,2,0,-5,-4,-2,-2
14:43:46:78481,-4,1,2,0,-5,-4,-2,-2
14:43:46:79307,-7,-5,-3,-1,-1,4,7,3
14:43:46:93453,0,-16,-4,1,3,-1,-2,0
14:43:46:94343,0,-16,-4,1,3,-1,-2,0
14:43:46:100300,6,-1,-1,-10,4,2,0,1
14:43:46:107829,-15,-6,-21,-9,-6,-6,-5,-1
14:43:46:115327,-15,-6,-21,-9,-6,-6,-5,-1
14:43:46:122830,-2,-13,-2,3,-7,-6,-7,-6
14:43:46:130245,4,8,8,-6,-3,1,0,-2
14:43:46:138509,4,8,8,-6,-3,1,0,-2
14:43:46:139288,-1,22,5,1,-2,1,-1,-3
14:43:46:153507,14,32,7,13,6,3,2,3
14:43:46:154282,14,32,7,13,6,3,2,3
14:43:46:160303,0,-15,-14,-8,-1,2,3,-2
14:43:46:167772,3,11,0,2,5,2,5,2
14:43:46:175346,3,11,0,2,5,2,5,2
14:43:46:182827,1,-15,-3,-2,-2,-2,-1,2
14:43:46:190262,3,-4,-3,1,3,2,0,1
14:43:46:198505,3,-4,-3,1,3,2,0,1
14:43:46:199325,-3,-11,4,3,-2,-3,-5,-3
14:43:46:213251,-1,-2,-5,-19,-2,-3,-3,-3
14:43:46:221400,-1,-2,-5,-19,-2,-3,-3,-3
14:43:46:228420,-5,14,-4,8,-1,-3,-2,0
14:43:46:229241,9,-6,8,10,0,3,6,5
14:43:46:235349,9,-6,8,10,0,3,6,5
14:43:46:242848,2,-4,-4,-8,-6,-5,-14,-7
14:43:46:250276,-3,-6,-3,-4,-7,-4,-8,-5
14:43:46:258554,-3,-6,-3,-4,-7,-4,-8,-5
14:43:46:259306,-3,-8,-1,0,-2,-2,2,-1
14:43:46:273500,-7,-47,-26,2,4,1,1,-1
14:43:46:274326,-7,-47,-26,2,4,1,1,-1
14:43:46:280309,-3,-10,-3,-6,1,0,0,-1
14:43:46:287827,-5,-1,-3,-4,-8,-6,0,0
14:43:46:295371,-5,-1,-3,-4,-8,-6,0,0
14:43:46:302829,12,8,6,-5,-1,2,2,-2
14:43:46:310308,-6,5,3,9,-2,1,3,-4
14:43:46:318506,-6,5,3,9,-2,1,3,-4
14:43:46:319270,-20,7,3,-2,0,1,0,2
14:43:46:333527,5,-5,10,5,2,-3,-11,-2
14:43:46:334336,5,-5,10,5,2,-3,-11,-2
14:43:46:340320,4,10,10,2,0,3,4,2
14:43:46:347822,-10,9,2,-3,-1,1,3,-3
14:43:46:355327,-10,9,2,-3,-1,1,3,-3
14:43:46:362846,0,-1,-3,-2,-4,-3,-2,-1
14:43:46:370297,5,-6,6,1,4,3,3,-2
14:43:46:377848,5,-6,6,1,4,3,3,-2
14:43:46:385277,1,6,7,-2,-1,-1,2,2
14:43:46:393478,3,4,6,0,-2,-5,-9,-2
14:43:46:394307,3,4,6,0,-2,-5,-9,-2
14:43:46:400296,2,-5,-6,-21,0,-1,-2,1
14:43:46:415991,-3,7,0,-2,1,1,-4,-2
14:43:46:416841,-3,7,0,-2,1,1,-4,-2
14:43:46:422767,11,13,7,7,-4,-5,-5,-2
14:43:46:430266,-2,2,-16,-4,1,-1,-2,0
14:43:46:437855,-2,2,-16,-4,1,-1,-2,0
14:43:46:445304,-16,-7,-7,11,6,2,4,-2
14:43:46:453502,-1,8,4,1,1,-2,-5,-3
14:43:46:454325,-1,8,4,1,1,-2,-5,-3
14:43:46:460336,6,-2,-10,12,13,0,-12,-7
14:43:46:476008,-5,2,1,-24,-7,-1,-1,-2
14:43:46:476835,-5,2,1,-24,-7,-1,-1,-2
14:43:46:482856,5,-13,-12,-7,-9,-4,-1,1
14:43:46:490286,8,25,18,9,0,-1,5,5
14:43:46:497863,8,25,18,9,0,-1,5,5
14:43:46:505299,0,-2,-15,-9,-5,-5,-3,0
14:43:46:513542,-14,4,-4,7,3,1,3,-2
14:43:46:514342,-14,4,-4,7,3,1,3,-2
14:43:46:520349,-2,13,5,20,4,-1,2,2
14:43:46:536412,2,-7,-1,2,10,-1,-5,-5
14:43:46:543531,2,-7,-1,2,10,-1,-5,-5
14:43:46:544317,-6,-17,12,-8,-5,-4,-5,-4
14:43:46:550301,0,-30,-34,-10,-8,-5,-4,-2
14:43:46:566007,0,-30,-34,-10,-8,-5,-4,-2
14:43:46:566838,9,9,12,3,6,4,0,1
14:43:46:573511,4,13,11,-10,-6,-3,-1,0
14:43:46:574344,4,13,11,-10,-6,-3,-1,0
14:43:46:580295,-1,-6,-8,-4,0,1,-3,2
14:43:46:595987,-11,13,6,6,2,2,-3,0
14:43:46:596827,-11,13,6,6,2,2,-3,0
14:43:46:602856,-5,0,-4,-2,-1,1,3,2
14:43:46:610259,-2,-2,5,4,-11,-4,2,3
14:43:46:617851,-2,-2,5,4,-11,-4,2,3
14:43:46:625334,-3,6,-5,-4,3,1,-4,-4
14:43:46:633481,-3,-5,-11,8,-5,1,0,-1
14:43:46:634271,-3,-5,-11,8,-5,1,0,-1
14:43:46:640309,-16,17,7,-1,-3,-2,8,-1
14:43:46:656016,4,0,11,14,4,0,-5,-3
14:43:46:656829,4,0,11,14,4,0,-5,-3
14:43:46:662850,-9,-21,-8,-3,-5,-1,3,-1
14:43:46:670301,-1,-20,0,-2,1,-1,3,3
14:43:46:677843,-1,-20,0,-2,1,-1,3,3
14:43:46:685313,2,2,-2,-8,-7,-3,1,-3
14:43:46:693466,1,0,-13,-5,2,-1,-8,-5
14:43:46:694303,1,0,-13,-5,2,-1,-8,-5
14:43:46:700264,-2,-11,-8,-10,-2,-1,-2,0
14:43:46:715973,1,1,4,-10,-6,1,5,1
14:43:46:716843,1,1,4,-10,-6,1,5,1
14:43:46:722881,0,-9,-11,-4,-5,-4,-3,0
14:43:46:730312,-5,1,-6,-2,-5,-5,-8,-5
14:43:46:737868,-5,1,-6,-2,-5,-5,-8,-5
14:43:46:745293,-5,-7,21,8,1,-3,-4,-1
14:43:46:753490,-5,-22,5,4,0,1,-1,-1
14:43:46:754301,-5,-22,5,4,0,1,-1,-1
14:43:46:760287,8,9,9,-2,-4,-2,1,2
14:43:46:775976,-1,11,-5,1,4,0,0,0
14:43:46:776858,-1,11,-5,1,4,0,0,0
14:43:46:782766,-2,-15,-3,7,-1,3,5,0
14:43:46:790284,4,3,12,6,-1,-1,2,0
14:43:46:797836,4,3,12,6,-1,-1,2,0
14:43:46:805293,-3,-4,-4,1,-2,-1,6,1
14:43:46:813514,-5,-6,-15,-26,0,0,0,4
14:43:46:814307,-5,-6,-15,-26,0,0,0,4
14:43:46:820288,0,-4,-16,-4,-4,0,-5,-4
14:43:46:836481,6,21,5,-9,-7,-1,4,2
14:43:46:837297,6,21,5,-9,-7,-1,4,2
14:43:46:842855,3,7,-2,-9,-1,-2,-2,-1
14:43:46:850288,2,17,13,3,1,1,-5,-3
14:43:46:857853,2,17,13,3,1,1,-5,-3
14:43:46:865325,4,1,-4,9,-3,-5,-1,-2
14:43:46:873556,4,-8,6,2,-1,-2,4,-1
14:43:46:874334,4,-8,6,2,-1,-2,4,-1
14:43:46:880312,3,10,5,-1,-6,-1,-10,-6
14:43:46:895985,-4,-1,-4,0,1,0,-8,-5
14:43:46:896822,-4,-1,-4,0,1,0,-8,-5
14:43:46:902862,-8,-11,-1,0,-5,-1,-4,-5
14:43:46:910281,-5,-3,-2,-6,5,2,6,3
14:43:46:917900,-5,-3,-2,-6,5,2,6,3
14:43:46:925309,-2,2,-2,0,2,0,-1,-3
14:43:46:933458,4,9,-5,3,-3,0,1,-1
14:43:46:934264,4,9,-5,3,-3,0,1,-1
14:43:46:940349,7,17,4,0,5,-4,-2,1
14:43:46:955967,-3,6,-1,-8,2,0,-1,1
14:43:46:956867,-3,6,-1,-8,2,0,-1,1
14:43:46:962866,-7,-12,2,-4,-5,-1,-3,2
14:43:46:970354,2,-13,-8,6,1,-4,2,2
14:43:46:977843,2,-13,-8,6,1,-4,2,2
14:43:46:985329,1,16,11,-8,-3,-1,1,0
14:43:46:993448,-5,-12,-8,2,-3,2,1,-1
14:43:46:994306,-5,-12,-8,2,-3,2,1,-1
14:43:47:7843,3,-21,-28,-5,6,1,-1,1
14:43:47:15963,-5,-6,0,-1,-2,-7,-10,-6
14:43:47:16826,-5,-6,0,-1,-2,-7,-10,-6
14:43:47:22825,-26,-13,0,1,-4,0,-4,-2
14:43:47:30285,-1,1,7,-5,-6,-4,1,0
14:43:47:37832,-1,1,7,-5,-6,-4,1,0
14:43:47:45279,4,-1,-8,-37,-10,0,3,0
14:43:47:53519,-6,-7,1,4,0,1,-2,1
14:43:47:54315,-6,-7,1,4,0,1,-2,1
14:43:47:60284,5,13,-1,8,0,-1,0,-1
14:43:47:75964,3,12,0,-2,2,0,-6,0
14:43:47:76817,3,12,0,-2,2,0,-6,0
14:43:47:82777,2,-1,3,10,12,3,1,0
14:43:47:90297,-2,-8,-4,-1,-6,-2,1,-5
14:43:47:97869,-2,-8,-4,-1,-6,-2,1,-5
14:43:47:105318,-7,-33,3,-1,-5,-1,1,-3
14:43:47:113493,2,-2,-1,2,2,2,11,0
14:43:47:114313,2,-2,-1,2,2,2,11,0
14:43:47:120313,-5,-10,-4,4,1,-2,1,-2
14:43:47:136059,-5,-10,-4,4,1,-2,1,-2
14:43:47:136846,-5,-27,-22,-7,-3,-2,-1,-1
14:43:47:142842,-7,2,11,5,0,0,-1,2
14:43:47:158485,-7,2,11,5,0,0,-1,2
14:43:47:159328,0,11,4,-1,-7,-2,-4,-3
14:43:47:165259,10,5,2,3,3,2,-6,-4
14:43:47:173526,10,5,2,3,3,2,-6,-4
14:43:47:174325,6,10,7,9,8,1,-5,0
14:43:47:180292,14,13,-1,7,-3,1,5,-1
14:43:47:195982,14,13,-1,7,-3,1,5,-1
14:43:47:196834,-17,-3,-3,-5,-3,-4,-8,-3
14:43:47:202764,0,3,-4,5,4,-2,-3,-5
14:43:47:219008,0,3,-4,5,4,-2,-3,-5
14:43:47:219859,9,18,8,2,0,-1,0,2
14:43:47:225298,-3,2,1,0,-3,-4,-1,-1
14:43:47:233502,-3,2,1,0,-3,-4,-1,-1
14:43:47:234296,1,1,9,7,2,1,3,2
14:43:47:240323,0,18,1,-3,-5,-6,-4,-1
14:43:47:255981,0,18,1,-3,-5,-6,-4,-1
14:43:47:256829,-6,-4,-3,2,-3,-6,-12,-2
14:43:47:262749,2,-4,8,-5,-4,-3,-7,-1
14:43:47:278482,2,-4,8,-5,-4,-3,-7,-1
14:43:47:279273,-5,-17,-11,-4,-1,1,9,1
14:43:47:285371,-5,9,-11,-1,0,-3,-3,-3
14:43:47:293539,-5,9,-11,-1,0,-3,-3,-3
14:43:47:294359,5,-2,-3,-3,3,3,-2,1
14:43:47:300286,3,-5,-7,1,-3,0,7,1
14:43:47:315999,3,-5,-7,1,-3,0,7,1
14:43:47:316842,-3,24,-4,-4,-9,-1,-1,-3
14:43:47:322845,-2,-10,-2,-2,-4,2,-5,1
14:43:47:338490,-2,-10,-2,-2,-4,2,-5,1
14:43:47:339287,-13,-29,-6,-7,-2,1,-2,-1
14:43:47:345331,-7,-22,-6,-4,6,2,5,1
14:43:47:353509,-7,-22,-6,-4,6,2,5,1
14:43:47:354283,14,-1,10,-22,-8,0,4,5
14:43:47:367877,-24,21,-10,-16,3,2,-7,-4
14:43:47:384198,-24,21,-10,-16,3,2,-7,-4
14:43:47:384979,6,14,10,12,2,0,0,-1
14:43:47:385842,12,24,13,6,-2,-5,-2,1
14:43:47:398541,12,24,13,6,-2,-5,-2,1
14:43:47:399324,0,13,-1,0,6,0,-3,-3
14:43:47:405303,-3,-29,1,4,1,-3,2,-1
14:43:47:413522,-3,-29,1,4,1,-3,2,-1
14:43:47:414323,-2,-11,1,1,-2,-4,-4,-4
14:43:47:427758,-7,5,9,0,-1,4,8,1
14:43:47:436019,-7,5,9,0,-1,4,8,1
14:43:47:436860,-1,-19,-2,-2,-4,-6,-12,-5
14:43:47:442845,9,8,0,-11,-5,-2,-2,-1
14:43:47:458524,9,8,0,-11,-5,-2,-2,-1
14:43:47:459302,-3,22,3,-8,-2,1,2,-2
14:43:47:465313,2,-3,1,2,-3,-2,6,-1
14:43:47:473542,2,-3,1,2,-3,-2,6,-1
14:43:47:474318,-3,-13,-1,1,0,-3,6,-2
14:43:47:487795,3,5,-10,1,5,6,3,0
14:43:47:496021,3,5,-10,1,5,6,3,0
14:43:47:496845,3,-4,-4,16,4,0,-3,-1
14:43:47:502850,-1,4,6,0,2,-1,-3,6
14:43:47:518508,-1,4,6,0,2,-1,-3,6
14:43:47:519334,-15,16,-6,-18,-5,-1,-3,-1
14:43:47:525296,10,-8,-6,-5,0,0,0,0
14:43:47:533511,10,-8,-6,-5,0,0,0,0
14:43:47:534308,-13,-4,1,1,-4,-2,-8,-6
14:43:47:548234,-3,-7,3,-2,-12,-4,1,-2
14:43:47:556003,-3,-7,3,-2,-12,-4,1,-2
14:43:47:556848,2,-3,-3,5,-3,-3,1,0
14:43:47:562781,-5,-5,9,-3,-1,-6,-8,-2
14:43:47:578506,-5,-5,9,-3,-1,-6,-8,-2
14:43:47:579268,-4,-10,-9,-6,2,-1,-2,-4
14:43:47:585316,-6,-5,-9,6,4,1,1,0
14:43:47:593509,-6,-5,-9,6,4,1,1,0
14:43:47:594342,5,4,14,2,-1,-2,4,1
14:43:47:607848,2,-19,-19,-3,-2,1,-3,-4
14:43:47:616708,2,-19,-19,-3,-2,1,-3,-4
14:43:47:617502,-6,-4,3,4,-8,0,3,1
14:43:47:622786,10,-8,3,6,5,2,-7,0
14:43:47:638515,10,-8,3,6,5,2,-7,0
14:43:47:639296,5,4,1,-6,1,0,-2,3
14:43:47:645312,0,-5,6,12,-2,-6,-5,-4
14:43:47:653501,0,-5,6,12,-2,-6,-5,-4
14:43:47:654288,12,10,5,3,4,0,-2,1
14:43:47:667860,-3,-2,10,6,-2,-4,-2,0
14:43:47:676014,-3,-2,10,6,-2,-4,-2,0
14:43:47:676833,-9,-15,-3,-2,0,-2,1,-3
14:43:47:682865,-4,2,-15,-12,-5,-1,-2,-5
14:43:47:698505,-4,2,-15,-12,-5,-1,-2,-5
14:43:47:699303,6,0,-2,-6,-1,-1,-3,2
14:43:47:705330,-7,17,6,-10,-4,-2,0,1
14:43:47:713292,-7,17,6,-10,-4,-2,0,1
14:43:47:720334,13,6,-5,14,12,5,0,-2
14:43:47:727867,0,-15,-16,-15,-1,0,1,1
14:43:47:736395,0,-15,-16,-15,-1,0,1,1
14:43:47:743431,1,4,-2,4,-7,-4,-3,-3
14:43:47:744244,1,13,7,6,1,4,3,0
14:43:47:758542,1,13,7,6,1,4,3,0
14:43:47:759310,2,-3,-7,-5,1,0,-2,0
14:43:47:765316,-3,-7,-2,0,-8,-6,-3,-3
14:43:47:773522,-3,-7,-2,0,-8,-6,-3,-3
14:43:47:774413,-1,-4,-8,-3,0,-2,-3,0
14:43:47:787872,0,-1,2,2,1,-1,-2,-1
14:43:47:795975,0,-1,2,2,1,-1,-2,-1
14:43:47:796820,0,4,-2,-2,-2,-1,-2,-1
14:43:47:802802,1,-28,-11,4,-2,1,2,1
14:43:47:818471,1,-28,-11,4,-2,1,2,1
14:43:47:819275,-2,-12,3,6,-7,-4,-6,-7
14:43:47:825333,1,13,11,8,2,0,2,-1
14:43:47:833520,1,13,11,8,2,0,2,-1
14:43:47:834314,0,-5,-9,-2,-2,-2,4,2
14:43:47:847860,-1,1,-7,-10,-5,0,-10,-3
14:43:47:855983,-1,1,-7,-10,-5,0,-10,-3
14:43:47:856904,-11,0,-1,-8,-7,-4,-3,-7
14:43:47:862841,-6,-5,3,1,3,1,-1,2
14:43:47:878578,-6,-5,3,1,3,1,-1,2
14:43:47:879392,-4,-12,-10,-5,4,0,-2,0
14:43:47:885340,-3,-25,9,5,-5,-2,-2,-2
14:43:47:893516,-3,-25,9,5,-5,-2,-2,-2
14:43:47:894279,2,2,-5,-8,-8,-2,-1,-1
14:43:47:907875,-19,2,-7,-18,-7,0,1,-3
14:43:47:916047,-19,2,-7,-18,-7,0,1,-3
14:43:47:916846,-5,-16,-9,-4,-2,-1,3,3
14:43:47:922874,-11,7,1,7,5,3,12,2
14:43:47:938538,-11,7,1,7,5,3,12,2
14:43:47:939312,-4,29,20,2,-7,-1,11,1
14:43:47:945312,2,7,3,-3,-3,-2,1,0
14:43:47:953492,2,7,3,-3,-3,-2,1,0
14:43:47:954276,1,7,14,5,9,6,6,2
14:43:47:967840,2,7,3,-4,-2,1,-2,-2
14:43:47:976020,2,7,3,-4,-2,1,-2,-2
14:43:47:976825,4,-20,-10,-7,-3,-2,-6,-1
14:43:47:982855,4,2,-7,1,-1,-3,-4,-1
14:43:47:998531,4,2,-7,1,-1,-3,-4,-1
14:43:47:999342,-1,5,2,9,3,1,1,-1
14:43:48:5291,0,-22,-27,-4,2,1,-5,1
14:43:48:13524,0,-22,-27,-4,2,1,-5,1
14:43:48:14332,0,-16,2,-8,-1,-1,-4,-1
14:43:48:27804,5,30,17,-1,1,-2,4,2
14:43:48:36048,5,30,17,-1,1,-2,4,2
14:43:48:36873,-5,-4,-33,-19,7,2,0,-1
14:43:48:42904,3,0,9,19,7,2,-3,2
14:43:48:58490,3,0,9,19,7,2,-3,2
14:43:48:59309,-6,-3,3,6,-5,-4,-2,-1
14:43:48:65332,-3,0,-14,-7,3,1,1,-3
14:43:48:73544,-3,0,-14,-7,3,1,1,-3
14:43:48:74313,-5,-22,5,2,-3,-1,-3,-1
14:43:48:87812,0,-32,-5,0,-7,-6,-6,-4
14:43:48:96008,0,-32,-5,0,-7,-6,-6,-4
14:43:48:96855,0,12,6,-1,2,2,3,1
14:43:48:102883,5,1,5,7,0,0,4,-2
14:43:48:118516,5,1,5,7,0,0,4,-2
14:43:48:119317,9,1,-2,-4,-1,-3,-3,0
14:43:48:125280,5,9,-9,1,2,1,-4,1
14:43:48:133519,5,9,-9,1,2,1,-4,1
14:43:48:134315,1,7,-6,5,-3,-1,2,-2
14:43:48:147765,-3,18,-11,-23,-6,-4,0,-4
14:43:48:164170,-3,18,-11,-23,-6,-4,0,-4
14:43:48:164978,-5,20,10,0,-4,-5,-15,-2
14:43:48:165748,-6,-8,-9,-2,0,-4,-7,-1
14:43:48:178501,-6,-8,-9,-2,0,-4,-7,-1
14:43:48:179279,-4,-2,-4,2,-3,-2,-6,-5
14:43:48:185311,1,7,17,1,0,0,1,-1
14:43:48:193500,1,7,17,1,0,0,1,-1
14:43:48:194283,-5,-8,-9,-5,1,0,0,-1
14:43:48:207859,-15,17,8,0,-2,-3,3,-1
14:43:48:216004,-15,17,8,0,-2,-3,3,-1
14:43:48:216844,0,2,11,7,1,2,1,0
14:43:48:222855,4,3,11,2,0,0,-2,-1
14:43:48:238589,4,3,11,2,0,0,-2,-1
14:43:48:239362,2,4,-2,-4,-3,0,6,-2
14:43:48:245308,0,-10,-12,1,-3,0,6,4
14:43:48:253487,0,-10,-12,1,-3,0,6,4
14:43:48:254256,-2,-7,-9,-3,-4,1,0,-2
14:43:48:267871,3,-2,-11,-2,-5,-1,0,-2
14:43:48:276034,3,-2,-11,-2,-5,-1,0,-2
14:43:48:276845,4,5,13,9,5,0,-3,1
14:43:48:290277,9,-4,4,-13,-7,-4,-6,-2
14:43:48:298532,9,-4,4,-13,-7,-4,-6,-2
14:43:48:299328,-1,-6,-14,-7,-5,-3,-6,0
14:43:48:305298,-2,-19,-2,-2,-3,-1,1,-1
14:43:48:312868,-2,-19,-2,-2,-3,-1,1,-1
14:43:48:320274,-5,-14,-4,-15,4,-3,-6,-5
14:43:48:327865,-4,-3,-11,3,-2,0,1,-1
14:43:48:336038,-4,-3,-11,3,-2,0,1,-1
14:43:48:336837,-2,-2,5,5,-1,-1,2,-2
14:43:48:350298,3,-9,-12,7,0,-2,-8,-3
14:43:48:358563,3,-9,-12,7,0,-2,-8,-3
14:43:48:359338,-5,-3,-4,1,-8,-6,-2,-1
14:43:48:365297,-6,-23,6,13,7,3,0,0
14:43:48:372856,-6,-23,6,13,7,3,0,0
14:43:48:380334,-5,16,7,-4,-5,-4,-4,-1
14:43:48:387866,0,-13,-1,-6,-4,-4,-1,-4
14:43:48:396008,0,-13,-1,-6,-4,-4,-1,-4
14:43:48:396840,-3,-3,-2,8,-1,1,3,0
14:43:48:410320,-4,15,1,-4,7,4,4,1
14:43:48:418489,-4,15,1,-4,7,4,4,1
14:43:48:419285,5,-1,-10,2,0,2,-2,1
14:43:48:425357,-6,29,13,10,-3,-2,-2,2
14:43:48:432869,-6,29,13,10,-3,-2,-2,2
14:43:48:440301,1,-3,-13,-11,1,0,1,1
14:43:48:447841,2,3,-10,-13,-6,-2,0,0
14:43:48:456049,2,3,-10,-13,-6,-2,0,0
14:43:48:456851,-4,-11,-2,-2,1,-2,-2,-2
14:43:48:470316,-7,-18,1,-17,-3,-1,-8,-5
14:43:48:478504,-7,-18,1,-17,-3,-1,-8,-5
14:43:48:479292,3,-9,-6,3,3,3,8,0
14:43:48:485286,2,6,14,13,8,-1,2,-1
14:43:48:492867,2,6,14,13,8,-1,2,-1
14:43:48:500284,6,43,13,-4,-4,-5,-7,-1
14:43:48:507824,-11,-1,4,-2,-2,-5,-10,-6
14:43:48:516056,-11,-1,4,-2,-2,-5,-10,-6
14:43:48:516884,3,7,7,13,-1,-3,-3,1
14:43:48:530307,5,-14,0,0,-3,0,-7,0
14:43:48:538528,5,-14,0,0,-3,0,-7,0
14:43:48:539325,-20,-7,3,-3,-6,-2,-1,-4
14:43:48:545291,5,7,-3,-2,2,-2,1,-1
14:43:48:552853,5,7,-3,-2,2,-2,1,-1
14:43:48:560309,0,-32,-8,-9,0,1,7,1
14:43:48:567855,1,23,-2,-22,4,1,4,3
14:43:48:576687,1,23,-2,-22,4,1,4,3
14:43:48:577491,1,0,1,0,1,1,-5,-1
14:43:48:590301,7,2,-5,1,-1,-2,5,1
14:43:48:598524,7,2,-5,1,-1,-2,5,1
14:43:48:599298,1,3,0,0,0,0,2,0
14:43:48:613507,-4,-9,-17,3,-3,-1,-11,-4
14:43:48:614354,-4,-9,-17,3,-3,-1,-11,-4
14:43:48:620300,1,4,5,10,0,-3,-8,-6
14:43:48:627771,3,2,2,7,-1,1,-4,-4
14:43:48:636051,3,2,2,7,-1,1,-4,-4
14:43:48:636868,-1,13,-5,-7,-4,4,14,3
14:43:48:650306,-7,-13,2,3,0,2,8,-1
14:43:48:666652,-7,-13,2,3,0,2,8,-1
14:43:48:667457,-13,-16,-10,-3,3,-1,3,2
14:43:48:668293,1,6,1,4,-1,-1,-4,1
14:43:48:672850,1,6,1,4,-1,-1,-4,1
14:43:48:680295,11,5,1,-3,-3,-4,1,0
14:43:48:687791,6,10,-3,13,2,-4,-3,-1
14:43:48:696687,6,10,-3,13,2,-4,-3,-1
14:43:48:697493,-1,-11,-4,3,-2,-3,-22,0
14:43:48:710276,1,-4,-3,1,-4,-2,7,2
14:43:48:718533,1,-4,-3,1,-4,-2,7,2
14:43:48:719295,3,3,0,-1,-3,-3,-6,-4
14:43:48:725306,1,-13,-6,0,3,0,1,-1
14:43:48:732879,1,-13,-6,0,3,0,1,-1
14:43:48:740314,-7,3,2,-7,-5,-5,-4,-1
14:43:48:747787,-2,14,4,-10,-5,-3,-6,-2
14:43:48:756042,-2,14,4,-10,-5,-3,-6,-2
14:43:48:756886,5,1,-2,10,9,3,-6,-2
14:43:48:770303,-6,-4,-3,-6,-5,-5,-8,-5
14:43:48:778519,-6,-4,-3,-6,-5,-5,-8,-5
14:43:48:779312,-5,-4,-6,-17,-4,-3,-6,-5
14:43:48:785318,2,9,-2,0,-2,1,0,2
14:43:48:792894,2,9,-2,0,-2,1,0,2
14:43:48:800306,2,-7,4,5,1,0,7,-3
14:43:48:807859,-15,-2,8,-2,-4,-4,-5,-5
14:43:48:815983,-15,-2,8,-2,-4,-4,-5,-5
14:43:48:816851,-6,10,-3,-2,0,2,1,-1
14:43:48:830320,1,0,-3,2,1,1,1,2
14:43:48:838541,1,0,-3,2,1,1,1,2
14:43:48:839331,-11,-9,8,-2,-3,-5,0,-1
14:43:48:845320,-1,-20,-9,2,0,2,7,0
14:43:48:852852,-1,-20,-9,2,0,2,7,0
14:43:48:860357,7,-4,-3,-1,0,0,4,5
14:43:48:867873,0,-8,-5,-4,-1,3,11,3
14:43:48:876011,0,-8,-5,-4,-1,3,11,3
14:43:48:876879,0,-6,-1,0,-3,-2,-6,-4
14:43:48:890328,-1,-11,1,0,-2,-3,-1,0
14:43:48:898485,-1,-11,1,0,-2,-3,-1,0
14:43:48:899308,18,-1,8,-20,-8,-3,3,2
14:43:48:905313,0,7,6,-4,-3,-2,-9,-2
14:43:48:912904,0,7,6,-4,-3,-2,-9,-2
14:43:48:920323,16,-4,-23,2,3,-1,-1,0
14:43:48:927775,0,0,1,-1,1,0,1,-1
14:43:48:936080,0,0,1,-1,1,0,1,-1
14:43:48:936869,-1,11,7,2,1,0,10,2
14:43:48:950324,-1,-11,-10,0,2,2,6,4
14:43:48:958486,-1,-11,-10,0,2,2,6,4
14:43:48:959274,-7,-18,2,-5,-1,2,-2,1
14:43:48:965290,-4,1,2,-3,-6,-3,-8,-1
14:43:48:972871,-4,1,2,-3,-6,-3,-8,-1
14:43:48:980291,-12,13,-11,7,-1,-1,-8,-4
14:43:48:987798,5,3,6,1,0,-1,0,-2
14:43:48:996021,5,3,6,1,0,-1,0,-2
14:43:48:996836,-10,-1,2,5,5,4,-3,-2
14:43:49:10297,-3,-2,-12,-4,2,-2,-3,-3
14:43:49:18524,-3,-2,-12,-4,2,-2,-3,-3
14:43:49:19294,-4,-3,-3,3,-8,-8,-10,-6
14:43:49:25310,-6,-18,-11,-29,-9,-3,-7,-2
14:43:49:32865,-6,-18,-11,-29,-9,-3,-7,-2
14:43:49:40297,-12,-12,-1,10,5,1,8,2
14:43:49:47784,2,21,-11,-7,-3,-3,-8,-6
14:43:49:56084,2,21,-11,-7,-3,-3,-8,-6
14:43:49:56856,6,8,5,1,2,1,3,2
14:43:49:70298,1,15,11,2,8,2,4,2
14:43:49:78546,1,15,11,2,8,2,4,2
14:43:49:79324,-5,5,8,6,4,-1,-2,-2
14:43:49:85311,-5,3,-5,5,-2,1,-9,-4
14:43:49:92880,-5,3,-5,5,-2,1,-9,-4
14:43:49:108862,-1,7,0,5,-2,-1,4,4
14:43:49:116671,-1,-23,-2,-1,1,-4,0,-1
14:43:49:117519,-1,-23,-2,-1,1,-4,0,-1
14:43:49:118280,-2,4,-5,0,-4,-2,-1,-3
14:43:49:130275,-6,-8,-2,2,-1,-2,-3,-1
14:43:49:138537,-6,-8,-2,2,-1,-2,-3,-1
14:43:49:139342,5,-17,0,-1,-3,1,8,2
14:43:49:145302,-13,-6,4,0,-2,-2,-5,-2
14:43:49:152872,-13,-6,4,0,-2,-2,-5,-2
14:43:49:160336,4,1,1,-8,-5,-2,-5,-3
14:43:49:167854,6,12,2,3,-4,-2,3,2
14:43:49:176077,6,12,2,3,-4,-2,3,2
14:43:49:176870,5,0,2,0,0,1,-2,-4
14:43:49:190298,2,-26,2,3,-5,1,10,3
14:43:49:198552,2,-26,2,3,-5,1,10,3
14:43:49:199328,-2,-5,-10,-12,4,-2,-10,-1
14:43:49:205342,-1,-6,-8,-19,-5,0,-6,-6
14:43:49:221033,-1,-6,-8,-19,-5,0,-6,-6
14:43:49:221849,-2,15,10,6,-4,-2,-1,-2
14:43:49:227789,-10,30,4,6,0,-4,-3,-1
14:43:49:235376,-10,30,4,6,0,-4,-3,-1
14:43:49:242876,-2,-8,-3,-2,-6,-7,-12,-3
14:43:49:250284,4,15,11,-1,6,5,11,3
14:43:49:258549,4,15,11,-1,6,5,11,3
14:43:49:259322,-5,3,-8,-1,1,-2,-6,-4
14:43:49:273508,4,-7,-3,3,-2,0,-3,0
14:43:49:274327,4,-7,-3,3,-2,0,-3,0
14:43:49:280341,-4,-3,-8,-6,-6,2,5,0
14:43:49:296026,3,8,-8,2,-2,-1,1,-2
14:43:49:296861,3,8,-8,2,-2,-1,1,-2
14:43:49:302785,-23,-15,6,0,-2,-1,0,-2
14:43:49:310283,9,7,4,15,0,-6,-5,2
14:43:49:318530,9,7,4,15,0,-6,-5,2
14:43:49:319329,5,5,14,-2,-3,-2,-6,0
14:43:49:333517,-1,2,7,1,-2,-4,-3,-1
14:43:49:334326,-1,2,7,1,-2,-4,-3,-1
14:43:49:340287,1,-23,-15,-6,1,-1,4,-1
14:43:49:347781,13,0,-5,-3,1,1,-3,1
14:43:49:355390,13,0,-5,-3,1,1,-3,1
14:43:49:362865,4,12,4,2,-2,-2,2,-1
14:43:49:370337,-2,2,1,-1,0,2,5,-1
14:43:49:386005,-2,2,1,-1,0,2,5,-1
14:43:49:386866,1,9,2,4,1,-2,-12,-5
14:43:49:393504,0,-11,-3,-2,-1,0,-1,1
14:43:49:394351,0,-11,-3,-2,-1,0,-1,1
14:43:49:400303,-3,1,10,-2,0,-1,-5,1
14:43:49:407863,-3,-2,1,5,1,-2,0,-1
14:43:49:415318,-3,-2,1,5,1,-2,0,-1
14:43:49:422885,5,-2,-6,-3,1,2,6,0
14:43:49:430315,-9,-5,-2,-18,-6,-3,-6,-6
14:43:49:438504,-9,-5,-2,-18,-6,-3,-6,-6
14:43:49:439334,-2,-17,-28,-11,-3,-2,3,1
14:43:49:453501,-2,0,-1,-1,-6,-2,-4,-2
14:43:49:454276,-2,0,-1,-1,-6,-2,-4,-2
14:43:49:460307,-2,6,6,1,0,2,3,-1
14:43:49:467883,2,-13,3,1,0,-3,-1,-3
14:43:49:475343,2,-13,3,1,0,-3,-1,-3
14:43:49:482789,-2,-14,-9,-4,-3,-1,0,0
14:43:49:490276,-3,10,-9,-2,0,-2,-2,0
14:43:49:498545,-3,10,-9,-2,0,-2,-2,0
14:43:49:499372,4,-4,-4,-1,-1,0,6,2
14:43:49:513481,-3,-21,-14,3,0,-1,2,-1
14:43:49:514295,-3,-21,-14,3,0,-1,2,-1
14:43:49:520273,2,8,9,7,3,1,2,-1
14:43:49:527793,-5,21,19,5,7,2,3,0
14:43:49:535351,-5,21,19,5,7,2,3,0
14:43:49:542803,-2,-10,-10,-1,-1,-1,0,2
14:43:49:559164,-17,-12,-11,-1,-2,-1,-2,0
14:43:49:559970,-17,-12,-11,-1,-2,-1,-2,0
14:43:49:560764,5,14,11,5,-4,-3,2,1
14:43:49:573484,1,-5,-7,-3,1,2,-2,-2
14:43:49:574334,1,-5,-7,-3,1,2,-2,-2
14:43:49:580288,2,14,0,-3,1,-1,-4,1
14:43:49:587763,2,-2,3,-2,-4,-2,-2,1
14:43:49:595343,2,-2,3,-2,-4,-2,-2,1
14:43:49:602779,2,0,-9,-5,-1,-1,-2,0
14:43:49:610294,-5,-13,12,-1,-3,-4,-1,-1
14:43:49:618521,-5,-13,12,-1,-3,-4,-1,-1
14:43:49:619322,-1,-2,4,-9,-1,-2,-9,-5
14:43:49:633498,5,19,6,-2,-3,-1,0,-1
14:43:49:634326,5,19,6,-2,-3,-1,0,-1
14:43:49:640302,2,-26,-1,-1,-4,-1,-1,-1
14:43:49:647804,4,-4,-8,2,-3,-1,-2,1
14:43:49:655395,4,-4,-8,2,-3,-1,-2,1
14:43:49:662795,-3,-1,-6,-18,-6,0,2,0
14:43:49:670329,2,-8,-2,-1,3,2,-2,-1
14:43:49:678505,2,-8,-2,-1,3,2,-2,-1
14:43:49:679327,-2,5,-3,4,-1,-6,0,-2
14:43:49:693542,3,12,6,-3,4,1,4,0
14:43:49:694356,3,12,6,-3,4,1,4,0
14:43:49:700305,-13,10,12,10,1,-4,-7,-3
14:43:49:707786,3,-3,-1,2,-1,-2,3,-1
14:43:49:715379,3,-3,-1,2,-1,-2,3,-1
14:43:49:722888,-1,-15,5,9,4,5,2,1
14:43:49:730299,-17,4,-2,-1,1,2,1,0
14:43:49:738492,-17,4,-2,-1,1,2,1,0
14:43:49:739302,1,12,-12,-3,-3,-1,4,-1
14:43:49:753541,3,-8,-4,-1,0,1,0,1
14:43:49:754361,3,-8,-4,-1,0,1,0,1
14:43:49:760308,-5,-36,-5,7,0,-3,-3,-4
14:43:49:767874,0,-11,-10,0,-4,-2,15,4
14:43:49:775326,0,-11,-10,0,-4,-2,15,4
14:43:49:782866,2,19,16,-1,3,-1,-1,-3
14:43:49:790327,2,21,4,-1,-1,1,-8,-1
14:43:49:798479,2,21,4,-1,-1,1,-8,-1
14:43:49:799259,-5,-13,-5,4,3,-1,2,-2
14:43:49:813510,0,11,-1,-2,0,-4,-4,-4
14:43:49:814286,0,11,-1,-2,0,-4,-4,-4
14:43:49:820318,3,5,-3,3,-2,-1,-3,-1
14:43:49:827876,13,-26,-27,-9,-3,-2,-5,-1
14:43:49:835344,13,-26,-27,-9,-3,-2,-5,-1
14:43:49:842771,-5,-1,1,-9,-3,2,2,5
14:43:49:850281,-3,-7,12,-4,-5,-4,-5,-5
14:43:49:858501,-3,-7,12,-4,-5,-4,-5,-5
14:43:49:859308,9,5,-18,-4,-1,-1,1,3
14:43:49:873477,-8,-28,-10,3,1,-1,2,-2
14:43:49:874298,-8,-28,-10,3,1,-1,2,-2
14:43:49:880265,1,6,-3,0,-7,-2,-3,-3
14:43:49:887768,-3,6,-10,7,4,-3,4,1
14:43:49:895319,-3,6,-10,7,4,-3,4,1
14:43:49:902791,-5,3,1,-2,2,0,1,-1
14:43:49:910280,-20,8,-2,-5,-4,0,-1,-2
14:43:49:918524,-20,8,-2,-5,-4,0,-1,-2
14:43:49:919290,-15,-11,-2,-5,-5,-2,-2,-1
14:43:49:933525,4,-36,-1,12,-2,-3,-7,-6
14:43:49:934314,4,-36,-1,12,-2,-3,-7,-6
14:43:49:940292,4,2,8,7,4,3,2,0
14:43:49:947815,-2,27,11,1,-2,-1,-7,-3
14:43:49:955357,-2,27,11,1,-2,-1,-7,-3
14:43:49:962795,4,-13,-12,-1,-3,-1,1,-1
14:43:49:970282,-2,-1,7,-12,-2,0,-2,-2
14:43:49:978522,-2,-1,7,-12,-2,0,-2,-2
14:43:49:979313,3,14,-3,-2,3,1,0,-1
14:43:49:993295,1,17,-9,-22,-11,-4,-7,-3
14:43:50:1014,1,17,-9,-22,-11,-4,-7,-3
14:43:50:1875,-18,-9,-2,-8,-9,-4,-8,-8
14:43:50:7799,8,-6,-1,5,5,-3,0,1
14:43:50:15364,8,-6,-1,5,5,-3,0,1
14:43:50:22854,0,14,15,5,-1,-1,-1,0
14:43:50:30320,-2,6,12,9,11,3,-1,-1
14:43:50:38471,-2,6,12,9,11,3,-1,-1
14:43:50:39284,0,-9,5,-2,-3,2,2,1
14:43:50:53550,-9,-10,1,4,-7,-4,-6,-3
14:43:50:54328,-9,-10,1,4,-7,-4,-6,-3
14:43:50:60347,18,3,-10,-4,-1,-1,-1,0
14:43:50:67897,4,4,-8,-10,3,2,2,4
14:43:50:75355,4,4,-8,-10,3,2,2,4
14:43:50:82894,-1,6,1,0,-6,-3,-4,-2
14:43:50:90320,-7,3,2,6,6,0,-8,-4
14:43:50:106058,-7,3,2,6,6,0,-8,-4
14:43:50:106897,1,3,-5,-4,4,2,4,0
14:43:50:113477,-5,-25,-2,11,-5,-3,2,-2
14:43:50:114301,-5,-25,-2,11,-5,-3,2,-2
14:43:50:120356,-3,3,-2,0,-1,-1,-3,-1
14:43:50:127879,2,6,-3,1,-2,0,2,2
14:43:50:135362,2,6,-3,1,-2,0,2,2
14:43:50:142779,-2,-22,-12,-15,-14,-8,-5,-7
14:43:50:150319,2,-2,7,6,5,2,3,1
14:43:50:158475,2,-2,7,6,5,2,3,1
14:43:50:159314,7,8,-2,-13,2,2,3,4
14:43:50:173470,-1,-5,-2,-5,-4,-4,2,-1
14:43:50:174291,-1,-5,-2,-5,-4,-4,2,-1
14:43:50:180282,1,17,10,3,-2,-1,-2,-2
14:43:50:196011,2,41,8,-10,-2,2,2,0
14:43:50:196875,2,41,8,-10,-2,2,2,0
14:43:50:202881,-3,2,-4,3,1,-2,0,0
14:43:50:210343,-7,-2,-15,-1,-5,-3,-1,-1
14:43:50:217909,-7,-2,-15,-1,-5,-3,-1,-1
14:43:50:225291,0,-18,-1,0,-3,-4,-3,-2
14:43:50:233506,1,-17,-7,-19,-10,-3,-1,-1
14:43:50:234323,1,-17,-7,-19,-10,-3,-1,-1
14:43:50:240297,-3,8,9,8,7,4,3,1
14:43:50:256006,-5,-15,-1,2,-1,-2,-2,1
14:43:50:256904,-5,-15,-1,2,-1,-2,-2,1
14:43:50:262788,-1,21,-2,-5,-1,0,-1,1
14:43:50:270285,10,5,6,0,0,1,-2,-1
14:43:50:277929,10,5,6,0,0,1,-2,-1
14:43:50:285311,-5,-3,-8,-1,1,0,-1,-2
14:43:50:293517,1,12,16,3,1,1,1,-1
14:43:50:294333,1,12,16,3,1,1,1,-1
14:43:50:300346,-9,0,9,0,2,1,-1,-3
14:43:50:316394,4,2,-6,1,1,0,-2,-2
14:43:50:323597,4,2,-6,1,1,0,-2,-2
14:43:50:324331,-3,-24,-2,6,-2,-1,1,0
14:43:50:330316,-5,5,10,6,-1,-6,-7,-5
14:43:50:337894,-5,5,10,6,-1,-6,-7,-5
14:43:50:345307,-2,-7,-6,3,6,0,2,2
14:43:50:353554,-8,-4,-1,1,-3,-1,-1,-1
14:43:50:354381,-8,-4,-1,1,-3,-1,-1,-1
14:43:50:360303,0,5,1,-8,-7,-3,-6,-5
14:43:50:376002,-2,-10,-6,1,2,-1,2,0
14:43:50:376886,-2,-10,-6,1,2,-1,2,0
14:43:50:382803,9,-5,-1,4,0,1,6,4
14:43:50:390283,2,3,-2,-3,-1,2,-1,-1
14:43:50:397883,2,3,-2,-3,-1,2,-1,-1
14:43:50:405289,-7,10,-9,-2,-5,-5,-4,-3
14:43:50:413516,2,6,-2,-5,-7,-3,0,0
14:43:50:414295,2,6,-2,-5,-7,-3,0,0
14:43:50:420333,0,-1,5,2,6,0,-1,-1
14:43:50:436018,0,-7,-13,-6,4,-2,-10,-6
14:43:50:436872,0,-7,-13,-6,4,-2,-10,-6
14:43:50:442887,0,-8,-2,-1,-1,0,-1,-2
14:43:50:450297,-2,-10,-8,-3,-1,0,5,1
14:43:50:457895,-2,-10,-8,-3,-1,0,5,1
14:43:50:465364,-4,-15,-17,-3,-5,-1,-3,-2
14:43:50:473488,3,2,-14,-2,-2,-1,2,2
14:43:50:474309,3,2,-14,-2,-2,-1,2,2
14:43:50:480285,-5,1,-2,-2,0,2,0,3
14:43:50:496620,-6,-14,-10,0,-2,0,-2,-2
14:43:50:497440,-6,-14,-10,0,-2,0,-2,-2
14:43:50:502894,0,-14,8,7,2,-2,-4,-4
14:43:50:510323,7,16,34,4,0,0,0,0
14:43:50:517897,7,16,34,4,0,0,0,0
14:43:50:525294,6,7,3,1,3,0,4,0
14:43:50:533521,-16,-1,-12,-4,-3,-1,2,0
14:43:50:534323,-16,-1,-12,-4,-3,-1,2,0
14:43:50:540304,-6,22,-1,3,0,-4,-3,-2
14:43:50:555979,2,-13,-24,-14,-2,-1,-3,-1
14:43:50:556876,2,-13,-24,-14,-2,-1,-3,-1
14:43:50:562804,-5,2,2,-7,-7,-2,1,-1
14:43:50:570315,-10,-9,12,9,0,-1,-3,-2
14:43:50:577883,-10,-9,12,9,0,-1,-3,-2
14:43:50:585303,7,6,-6,3,6,4,1,0
14:43:50:593500,-9,-4,-2,-2,-1,1,-7,-1
14:43:50:594324,-9,-4,-2,-2,-1,1,-7,-1
14:43:50:600343,0,-3,-6,-1,-3,-4,0,1
14:43:50:616488,14,2,1,-2,-4,-3,-2,-2
14:43:50:617315,14,2,1,-2,-4,-3,-2,-2
14:43:50:622838,-1,9,11,0,-10,-6,-5,-2
14:43:50:630290,3,4,1,2,2,2,-3,-3
14:43:50:637904,3,4,1,2,2,2,-3,-3
14:43:50:645317,-5,-13,-11,-3,-4,0,-5,-2
14:43:50:653561,-1,1,6,2,-1,-1,7,-1
14:43:50:654393,-1,1,6,2,-1,-1,7,-1
14:43:50:660317,-2,-6,1,-2,0,-2,-4,-3
14:43:50:676005,0,3,-11,-9,-4,-5,0,1
14:43:50:676875,0,3,-11,-9,-4,-5,0,1
14:43:50:682801,-1,-6,-16,-6,-2,-3,-2,1
14:43:50:690286,3,9,8,3,0,-1,-2,-4
14:43:50:697873,3,9,8,3,0,-1,-2,-4
14:43:50:705295,1,6,6,-11,5,5,-3,-4
14:43:50:713493,1,-18,-3,0,-3,-2,-5,0
14:43:50:714304,1,-18,-3,0,-3,-2,-5,0
14:43:50:720331,9,7,3,5,-1,1,-2,1
14:43:50:736060,1,-1,-5,2,-5,-7,-8,0
14:43:50:736873,1,-1,-5,2,-5,-7,-8,0
14:43:50:750970,-4,1,8,5,0,1,2,0
14:43:50:751754,-2,-15,11,8,-2,1,-2,-7
14:43:50:757884,-2,-15,11,8,-2,1,-2,-7
14:43:50:765309,-5,-7,3,-2,-5,-4,2,-2
14:43:50:773536,-6,-6,-5,-10,0,1,1,2
14:43:50:774360,-6,-6,-5,-10,0,1,1,2
14:43:50:780285,2,-8,-4,-3,3,0,-2,-4
14:43:50:796056,1,-2,-2,-3,-1,1,-2,2
14:43:50:796881,1,-2,-2,-3,-1,1,-2,2
14:43:50:802826,0,-17,-4,8,4,0,0,3
14:43:50:810295,4,15,-4,1,4,-2,2,0
14:43:50:817875,4,15,-4,1,4,-2,2,0
14:43:50:825306,-4,-6,9,5,-1,0,0,-3
14:43:50:833494,-1,7,13,4,4,-1,-2,-1
14:43:50:834292,-1,7,13,4,4,-1,-2,-1
14:43:50:840337,-5,6,-11,-2,0,-1,-1,-1
14:43:50:855955,0,0,0,2,-2,-1,0,-1
14:43:50:856880,0,0,0,2,-2,-1,0,-1
14:43:50:862900,6,-3,2,-2,-4,-4,5,2
14:43:50:870324,-7,4,-5,-5,-3,1,7,0
14:43:50:877899,-7,4,-5,-5,-3,1,7,0
14:43:50:885337,-19,-4,-10,4,-2,-1,4,-1
14:43:50:893488,-6,1,6,0,0,1,0,0
14:43:50:894297,-6,1,6,0,0,1,0,0
14:43:50:900265,0,-7,13,-5,-5,-4,-5,-1
14:43:50:915980,4,-1,-4,-7,-5,1,3,0
14:43:50:916869,4,-1,-4,-7,-5,1,3,0
14:43:50:922912,7,11,-1,2,4,-2,0,3
14:43:50:930347,2,-1,1,1,-3,-3,-10,-6
14:43:50:937853,2,-1,1,1,-3,-3,-10,-6
14:43:50:945305,-4,1,-2,-6,-4,-4,-8,-3
14:43:50:953529,-2,-13,-13,-8,-5,-5,-5,-1
14:43:50:954343,-2,-13,-13,-8,-5,-5,-5,-1
14:43:50:960272,-17,-10,0,-2,-1,0,8,2
14:43:50:975982,-2,-13,-1,1,0,0,-7,-6
14:43:50:976883,-2,-13,-1,1,0,0,-7,-6
14:43:50:982796,0,8,-12,-11,-6,0,-1,1
14:43:50:990274,4,8,-1,2,0,0,3,4
14:43:50:997880,4,8,-1,2,0,0,3,4
14:43:51:5299,5,-6,-1,-1,-4,-4,-14,-10
14:43:51:13549,5,-6,-1,-1,-4,-4,-14,-10
14:43:51:14326,-2,-9,-8,0,7,-1,-3,-1
14:43:51:20303,4,6,3,3,-4,-2,-5,-2
14:43:51:36024,4,6,3,3,-4,-2,-5,-2
14:43:51:36873,0,-2,-5,-19,-4,0,-1,1
14:43:51:42822,2,-4,-9,-1,2,6,14,1
14:43:51:58498,2,-4,-9,-1,2,6,14,1
14:43:51:59313,-2,1,1,7,4,-1,-3,1
14:43:51:65279,-3,-2,4,-3,-2,-4,-4,1
14:43:51:73568,-3,-2,4,-3,-2,-4,-4,1
14:43:51:74347,10,1,-6,2,9,5,14,5
14:43:51:80305,0,-11,-11,0,4,-2,-5,-2
14:43:51:96005,0,-11,-11,0,4,-2,-5,-2
14:43:51:96892,7,2,8,1,-5,-2,1,1
14:43:51:102775,8,18,13,5,0,3,2,3
14:43:51:118489,8,18,13,5,0,3,2,3
14:43:51:119301,-3,12,11,4,-1,2,8,2
14:43:51:125302,1,0,13,-10,-6,1,-1,-1
14:43:51:133527,1,0,13,-10,-6,1,-1,-1
14:43:51:134362,-7,6,1,1,-3,-1,-7,-3
14:43:51:147894,7,-7,-16,-9,3,-2,-1,3
14:43:51:156055,7,-7,-16,-9,3,-2,-1,3
14:43:51:156887,-6,1,-1,-1,-4,-4,-1,-2
14:43:51:162787,-2,21,14,7,2,0,1,-1
14:43:51:178540,-2,21,14,7,2,0,1,-1
14:43:51:179303,-8,-5,0,-2,-4,-1,0,-3
14:43:51:185321,-25,4,3,-4,-3,-2,-2,-2
14:43:51:193533,-25,4,3,-4,-3,-2,-2,-2
14:43:51:194315,4,-3,5,5,-3,0,-1,-3
14:43:51:207830,-1,-26,-5,1,0,-4,-5,-3
14:43:51:216036,-1,-26,-5,1,0,-4,-5,-3
14:43:51:216804,-3,-9,-18,-3,0,-1,-2,0
14:43:51:222880,-6,0,-6,12,10,2,7,0
14:43:51:238526,-6,0,-6,12,10,2,7,0
14:43:51:239290,0,10,-3,5,0,1,1,0
14:43:51:245331,5,-10,-4,0,-4,0,1,1
14:43:51:253542,5,-10,-4,0,-4,0,1,1
14:43:51:254289,-15,-3,2,1,-2,1,5,-1
14:43:51:267807,6,-15,-3,2,-2,-5,-7,-1
14:43:51:276021,6,-15,-3,2,-2,-5,-7,-1
14:43:51:276818,5,-7,-4,5,0,-2,-6,-2
14:43:51:282891,2,-4,2,-6,-1,0,-1,-3
14:43:51:298541,2,-4,2,-6,-1,0,-1,-3
14:43:51:299359,-2,-6,-10,-13,-2,0,-4,-2
14:43:51:305324,-7,10,-6,-13,-4,-3,-11,-6
14:43:51:313512,-7,10,-6,-13,-4,-3,-11,-6
14:43:51:314313,-6,3,-2,0,3,-2,-1,-4
14:43:51:327826,9,11,6,-2,-7,-4,-4,-1
14:43:51:336004,9,11,6,-2,-7,-4,-4,-1
14:43:51:336825,1,3,9,-1,-2,-5,-7,0
14:43:51:342799,5,1,6,4,3,2,4,1
14:43:51:358547,5,1,6,4,3,2,4,1
14:43:51:359322,-12,10,7,-3,-1,0,-2,2
14:43:51:365293,-3,-30,-11,-6,-6,-2,-3,-1
14:43:51:373470,-3,-30,-11,-6,-6,-2,-3,-1
14:43:51:374278,3,-4,-7,-9,-7,-1,-1,2
14:43:51:387836,-4,16,7,4,-4,0,3,-2
14:43:51:396038,-4,16,7,4,-4,0,3,-2
14:43:51:396911,1,-11,-5,-18,-1,0,2,2
14:43:51:402827,6,-9,-12,-2,-3,-4,-5,-2
14:43:51:418563,6,-9,-12,-2,-3,-4,-5,-2
14:43:51:419325,-6,-15,1,7,-3,2,-3,-5
14:43:51:425313,0,11,-2,-2,-4,-5,-4,-1
14:43:51:433535,0,11,-2,-2,-4,-5,-4,-1
14:43:51:434329,14,4,-15,-13,-1,0,2,-2
14:43:51:447822,-7,7,0,1,0,1,-2,0
14:43:51:456053,-7,7,0,1,0,1,-2,0
14:43:51:456879,6,-3,2,8,3,1,0,-1
14:43:51:462816,3,-2,-2,-4,3,-1,-3,2
14:43:51:478536,3,-2,-2,-4,3,-1,-3,2
14:43:51:479318,5,-14,-3,13,6,-1,-5,-4
14:43:51:485306,-9,-8,-1,4,-3,-1,-5,-1
14:43:51:493515,-9,-8,-1,4,-3,-1,-5,-1
14:43:51:494310,-4,-1,-4,5,5,-1,2,1
14:43:51:507819,10,6,-6,-2,-3,-3,-5,-2
14:43:51:516032,10,6,-6,-2,-3,-3,-5,-2
14:43:51:516926,-5,-2,-11,1,-4,-1,-2,-2
14:43:51:522819,-4,-2,13,-1,-5,-1,8,1
14:43:51:538524,-4,-2,13,-1,-5,-1,8,1
14:43:51:539291,-3,19,8,-2,-5,-3,-8,-4
14:43:51:545296,-2,-1,0,-4,1,-1,-4,-4
14:43:51:553549,-2,-1,0,-4,1,-1,-4,-4
14:43:51:554324,-30,-6,-1,-1,-8,-7,-6,-1
14:43:51:567804,-6,-4,-2,1,7,7,1,2
14:43:51:576026,-6,-4,-2,1,7,7,1,2
14:43:51:576889,7,3,8,-1,-3,1,3,-5
14:43:51:582816,-3,-14,-8,-4,-3,-2,-2,-2
14:43:51:598524,-3,-14,-8,-4,-3,-2,-2,-2
14:43:51:599309,1,-2,-3,-1,-3,0,-5,-1
14:43:51:605291,4,-2,-9,1,1,1,9,-1
14:43:51:613976,4,-2,-9,1,1,1,9,-1
14:43:51:620303,3,3,0,-17,-5,-4,-9,-5
14:43:51:627792,-4,18,4,-1,-7,0,-1,0
14:43:51:636043,-4,18,4,-1,-7,0,-1,0
14:43:51:636888,-2,1,-2,9,3,-1,4,3
14:43:51:642812,2,-4,-1,4,7,-1,-10,-1
14:43:51:658547,2,-4,-1,4,7,-1,-10,-1
14:43:51:659341,8,-1,1,5,1,-2,-3,1
14:43:51:665298,-2,-1,-8,-5,-10,-4,1,-1
14:43:51:673545,-2,-1,-8,-5,-10,-4,1,-1
14:43:51:674335,4,5,-25,-13,-8,-2,-2,-3
14:43:51:687783,-3,0,10,3,0,-6,-9,-4
14:43:51:696021,-3,0,10,3,0,-6,-9,-4
14:43:51:696895,2,-1,-12,-4,0,-2,-1,2
14:43:51:702786,-2,-19,-3,4,-1,-2,1,1
14:43:51:718523,-2,-19,-3,4,-1,-2,1,1
14:43:51:719315,-8,-15,3,0,0,0,-2,-1
14:43:51:725307,7,-14,-3,4,1,0,2,-1
14:43:51:733521,7,-14,-3,4,1,0,2,-1
14:43:51:734327,7,-3,10,-2,-1,2,12,5
14:43:51:747815,-1,16,8,2,4,1,1,1
14:43:51:756037,-1,16,8,2,4,1,1,1
14:43:51:756881,-2,13,10,-4,-1,0,-1,-2
14:43:51:762799,2,5,-9,-25,-2,0,7,2
14:43:51:778492,2,5,-9,-25,-2,0,7,2
14:43:51:779310,-5,-1,1,-19,-9,-4,-2,-3
14:43:51:785337,-5,-3,-8,1,0,-3,-14,-5
14:43:51:793523,-5,-3,-8,1,0,-3,-14,-5
14:43:51:794298,8,4,5,1,-1,-3,0,-1
14:43:51:807851,-1,-13,-1,-2,-3,-1,3,0
14:43:51:816039,-1,-13,-1,-2,-3,-1,3,0
14:43:51:816809,1,-10,5,6,1,-3,-4,-2
14:43:51:822807,3,11,8,-9,-8,0,-1,6
14:43:51:838488,3,11,8,-9,-8,0,-1,6
14:43:51:839318,-3,8,15,7,5,1,1,-1
14:43:51:845326,-1,-21,-7,9,5,4,13,1
14:43:51:853564,-1,-21,-7,9,5,4,13,1
14:43:51:854346,7,3,-3,0,-2,-2,1,0
14:43:51:867824,-8,-18,-27,-7,-3,-1,6,-2
14:43:51:876007,-8,-18,-27,-7,-3,-1,6,-2
14:43:51:876795,-5,-16,7,18,8,4,2,2
14:43:51:899178,-4,-1,-11,0,0,2,1,-2
14:43:51:899986,-4,-1,-11,0,0,2,1,-2
14:43:51:900804,5,-2,-21,-13,-3,-1,0,3
14:43:51:905298,5,7,9,5,-2,-4,-9,-1
14:43:51:913542,5,7,9,5,-2,-4,-9,-1
14:43:51:914328,1,-13,-2,4,1,-2,-5,-2
14:43:51:927777,-4,1,11,13,2,0,-3,1
14:43:51:936424,-4,1,11,13,2,0,-3,1
14:43:51:943451,-3,5,-3,-6,-2,0,-7,-2
14:43:51:944256,-3,-3,-4,-7,-5,0,-3,-2
14:43:51:958547,-3,-3,-4,-7,-5,0,-3,-2
14:43:51:959301,-4,-16,-18,-5,-7,-3,-2,0
14:43:51:965302,0,5,8,-12,-4,-3,-6,5
14:43:51:973515,0,5,8,-12,-4,-3,-6,5
14:43:51:974330,1,17,2,4,-1,-3,10,0
14:43:51:987771,10,18,-2,-2,5,-1,-3,-5
14:43:51:996038,10,18,-2,-2,5,-1,-3,-5
14:43:51:996898,-7,-2,7,-4,-4,-1,-3,0
14:43:52:10345,3,1,-8,-3,-3,-4,-9,-5
14:43:52:18518,3,1,-8,-3,-3,-4,-9,-5
14:43:52:19310,-11,-11,9,8,8,3,4,-4
14:43:52:25301,-4,11,6,3,-2,-1,-3,-1
14:43:52:33538,-4,11,6,3,-2,-1,-3,-1
14:43:52:34293,-9,0,-8,-2,-7,-3,7,2
14:43:52:56632,-4,-12,-22,-5,-1,-1,3,-4
14:43:52:57458,-4,-12,-22,-5,-1,-1,3,-4
14:43:52:58243,3,13,12,9,9,3,-2,-1
14:43:52:62837,-1,10,7,4,0,-3,-3,-5
14:43:52:78551,-1,10,7,4,0,-3,-3,-5
14:43:52:79336,6,-1,-16,-8,-7,-8,-14,-5
14:43:52:85324,-9,3,6,-4,0,1,-4,-5
14:43:52:92846,-9,3,6,-4,0,1,-4,-5
14:43:52:100346,-1,-26,-3,2,-4,-2,-7,2
14:43:52:107831,-1,-25,2,24,4,3,0,4
14:43:52:116003,-1,-25,2,24,4,3,0,4
14:43:52:116833,3,3,-1,4,5,1,-1,1
14:43:52:130313,-5,-21,-7,1,-3,-4,-5,-2
14:43:52:138497,-5,-21,-7,1,-3,-4,-5,-2
14:43:52:139298,-6,-4,-20,-4,0,1,1,2
14:43:52:145316,-4,20,13,-7,-3,-1,1,-2
14:43:52:152902,-4,20,13,-7,-3,-1,1,-2
14:43:52:160303,4,10,-13,-8,-5,-4,-6,-4
14:43:52:167783,-4,11,8,-6,0,-1,1,-1
14:43:52:176015,-4,11,8,-6,0,-1,1,-1
14:43:52:176883,2,-11,-1,0,-1,2,2,3
14:43:52:190354,0,-9,1,-32,-14,-3,1,-2
14:43:52:198502,0,-9,1,-32,-14,-3,1,-2
14:43:52:199314,6,20,11,-3,2,0,-4,-3
14:43:52:213468,5,4,-18,1,2,1,2,5
14:43:52:214305,5,4,-18,1,2,1,2,5
14:43:52:220351,-2,-2,8,-8,-3,-1,0,-2
14:43:52:227809,2,0,-17,3,6,2,5,2
14:43:52:236027,2,0,-17,3,6,2,5,2
14:43:52:236889,-9,14,15,8,4,2,-3,-5
14:43:52:250308,0,-19,-10,-21,-9,-2,-6,-4
14:43:52:258506,0,-19,-10,-21,-9,-2,-6,-4
14:43:52:259293,-1,-23,0,-4,-5,-5,-1,-2
14:43:52:265343,0,28,22,11,4,0,4,0
14:43:52:272918,0,28,22,11,4,0,4,0
14:43:52:280301,11,3,7,7,-1,1,2,2
14:43:52:287798,-3,-10,-2,12,4,2,1,-2
14:43:52:296048,-3,-10,-2,12,4,2,1,-2
14:43:52:296900,3,-14,-29,-3,4,2,-1,-1
14:43:52:310309,-9,-5,3,-1,-1,0,1,2
14:43:52:318528,-9,-5,3,-1,-1,0,1,2
14:43:52:319294,-6,-6,-10,2,-4,-1,1,1
14:43:52:325310,1,-9,-3,0,-1,-2,0,-2
14:43:52:332892,1,-9,-3,0,-1,-2,0,-2
14:43:52:348458,-2,1,4,4,5,0,-2,0
14:43:52:349249,-13,-7,-4,-8,-4,-3,-2,-1
14:43:52:356005,-13,-7,-4,-8,-4,-3,-2,-1
14:43:52:356908,-10,12,6,-9,-7,-2,-1,-3
14:43:52:370358,2,10,1,-12,-8,-6,0,-1
14:43:52:378497,2,10,1,-12,-8,-6,0,-1
14:43:52:379298,0,9,7,11,3,1,6,2
14:43:52:385273,0,-10,-5,7,2,0,2,-2
14:43:52:392940,0,-10,-5,7,2,0,2,-2
14:43:52:400331,0,12,3,13,2,-5,-3,-3
14:43:52:407811,0,13,16,1,6,1,-1,-2
14:43:52:416033,0,13,16,1,6,1,-1,-2
14:43:52:416903,5,6,14,-10,-5,1,1,1
14:43:52:430316,6,-4,-11,0,4,4,14,4
14:43:52:438562,6,-4,-11,0,4,4,14,4
14:43:52:439313,-2,-9,-10,-8,-3,-1,7,0
14:43:52:461604,5,-4,3,6,0,-3,-4,2
14:43:52:462431,5,-4,3,6,0,-3,-4,2
14:43:52:463250,0,0,-5,4,0,0,-1,-3
14:43:52:467816,3,6,4,3,-1,-1,-1,-1
14:43:52:476014,3,6,4,3,-1,-1,-1,-1
14:43:52:476804,-4,-12,-1,-5,-2,-1,-7,-1
14:43:52:490366,-1,17,9,11,1,1,-10,-4
14:43:52:498513,-1,17,9,11,1,1,-10,-4
14:43:52:499293,-14,-9,2,-4,-7,0,-1,-2
14:43:52:505350,5,2,3,-1,-4,0,-6,-4
14:43:52:512916,5,2,3,-1,-4,0,-6,-4
14:43:52:520352,-1,-7,6,-2,-2,-3,-5,-4
14:43:52:527870,-4,-3,-5,-2,0,-3,-3,2
14:43:52:536015,-4,-3,-5,-2,0,-3,-3,2
14:43:52:536882,5,1,-3,0,-1,-6,-10,-5
14:43:52:550347,2,9,4,2,0,-1,-4,-3
14:43:52:558510,2,9,4,2,0,-1,-4,-3
14:43:52:559302,2,6,2,-2,7,1,-3,-1
14:43:52:565342,-7,9,-1,-3,-6,-2,-2,0
14:43:52:572937,-7,9,-1,-3,-6,-2,-2,0
14:43:52:580318,-11,3,5,1,-3,-2,-3,1
14:43:52:587770,6,-4,-6,-6,0,-2,5,-1
14:43:52:596023,6,-4,-6,-6,0,-2,5,-1
14:43:52:596880,-1,9,-2,7,-3,-6,-10,-5
14:43:52:610307,4,-12,-5,0,2,3,3,2
14:43:52:618483,4,-12,-5,0,2,3,3,2
14:43:52:619291,-6,-10,-12,-6,0,4,6,-1
14:43:52:625297,-6,-15,-7,-4,-6,-2,-2,-2
14:43:52:632883,-6,-15,-7,-4,-6,-2,-2,-2
14:43:52:640286,4,0,0,-10,-4,-3,-5,2
14:43:52:647793,-22,-4,-7,-20,0,1,-2,-1
14:43:52:655811,-22,-4,-7,-20,0,1,-2,-1
14:43:52:662827,-2,0,1,-1,-4,-1,4,-1
14:43:52:670309,2,-8,0,10,1,0,0,-1
14:43:52:678546,2,-8,0,10,1,0,0,-1
14:43:52:679374,-1,-3,-8,-7,-7,-7,2,-1
14:43:52:685321,1,0,-9,0,-3,-3,-6,0
14:43:52:692809,1,0,-9,0,-3,-3,-6,0
14:43:52:700311,1,-8,2,4,-1,1,-2,-1
14:43:52:716654,-4,-16,-10,-5,1,-2,1,-1
14:43:52:717446,-4,-16,-10,-5,1,-2,1,-1
14:43:52:718253,-2,3,-6,-1,2,0,2,-2
14:43:52:730324,0,9,1,-1,-6,-5,-1,-2
14:43:52:738520,0,9,1,-1,-6,-5,-1,-2
14:43:52:739332,-3,-2,5,11,-2,-2,-4,1
14:43:52:745323,3,-13,0,-1,-6,-6,-2,4
14:43:52:752898,3,-13,0,-1,-6,-6,-2,4
14:43:52:760337,2,-1,0,2,0,0,-3,-3
14:43:52:767866,-14,-3,2,3,-2,2,-1,-2
14:43:52:775999,-14,-3,2,3,-2,2,-1,-2
14:43:52:776797,1,-1,-3,-8,-2,2,-1,-3
14:43:52:790287,8,7,5,-9,-2,-2,-2,-2
14:43:52:798472,8,7,5,-9,-2,-2,-2,-2
14:43:52:799278,8,-11,-2,-3,3,1,4,2
14:43:52:805347,-5,8,-10,-1,2,2,3,-2
14:43:52:812830,-5,8,-10,-1,2,2,3,-2
14:43:52:820322,0,0,-3,1,-2,0,8,4
14:43:52:827854,-1,-4,0,6,-1,-2,-3,-2
14:43:52:836017,-1,-4,0,6,-1,-2,-3,-2
14:43:52:836932,-20,-11,-27,-28,-10,-4,-8,-9
14:43:52:850325,13,-13,-2,11,4,-1,-5,-1
14:43:52:858511,13,-13,-2,11,4,-1,-5,-1
14:43:52:859326,2,3,15,8,1,1,5,1
14:43:52:865343,-4,-17,-2,4,2,0,-7,-1
14:43:52:872917,-4,-17,-2,4,2,0,-7,-1
14:43:52:880283,-9,-11,-3,-3,-2,-1,4,3
14:43:52:887783,-11,-4,6,-3,-1,-1,2,1
14:43:52:896078,-11,-4,6,-3,-1,-1,2,1
14:43:52:896900,3,-1,-7,0,0,1,-4,1
14:43:52:910368,6,4,10,-4,-4,0,-2,0
14:43:52:918513,6,4,10,-4,-4,0,-2,0
14:43:52:919336,-1,1,0,2,3,-3,-6,-2
14:43:52:925289,4,-1,-4,-2,-4,-3,-9,-4
14:43:52:932899,4,-1,-4,-2,-4,-3,-9,-4
14:43:52:940344,10,4,1,9,2,-2,-9,-4
14:43:52:947783,-15,-23,-15,-2,1,2,2,-4
14:43:52:956036,-15,-23,-15,-2,1,2,2,-4
14:43:52:956898,-10,-2,11,8,0,-2,-2,-1
14:43:52:970298,3,-12,-19,4,-6,1,7,0
14:43:52:978523,3,-12,-19,4,-6,1,7,0
14:43:52:979310,3,1,0,-10,-1,-1,-4,1
14:43:52:985318,-2,-5,-7,-6,-1,-1,11,-2
14:43:52:992929,-2,-5,-7,-6,-1,-1,11,-2
14:43:53:319,3,8,1,-5,-6,-1,-1,-2
14:43:53:7830,6,30,8,-1,-1,1,1,2
14:43:53:15402,6,30,8,-1,-1,1,1,2
14:43:53:22885,3,4,0,-6,-4,-1,2,1
14:43:53:30343,2,12,19,7,-2,-3,-2,-2
14:43:53:38521,2,12,19,7,-2,-3,-2,-2
14:43:53:39303,3,-6,3,-1,-5,-1,-2,-1
14:43:53:53916,-7,7,4,1,-1,-4,-5,-1
14:43:53:54768,-7,7,4,1,-1,-4,-5,-1
14:43:53:60325,-8,7,-4,-5,-1,-3,10,-1
14:43:53:67835,7,6,-5,-8,0,-5,-11,-7
14:43:53:75345,7,6,-5,-8,0,-5,-11,-7
14:43:53:82852,-6,-1,-15,-6,-1,1,-5,-3
14:43:53:90332,4,7,-3,-8,-4,-2,5,2
14:43:53:98499,4,7,-3,-8,-4,-2,5,2
14:43:53:99331,10,9,-1,2,-3,-4,-6,-2
14:43:53:113493,-3,-12,4,-4,4,1,-2,-2
14:43:53:114313,-3,-12,4,-4,4,1,-2,-2
14:43:53:120335,0,9,15,-1,4,4,4,3
14:43:53:127854,-13,-10,-9,-6,-3,2,9,0
14:43:53:135352,-13,-10,-9,-6,-3,2,9,0
14:43:53:142790,-9,-9,-3,6,1,-1,-5,-4
14:43:53:150267,4,14,-7,2,1,0,-10,0
14:43:53:158504,4,14,-7,2,1,0,-10,0
14:43:53:159313,-5,-9,-6,5,1,-6,3,0
14:43:53:173273,0,-20,-6,-7,-6,1,1,4
14:43:53:180993,0,-20,-6,-7,-6,1,1,4
14:43:53:181806,1,-14,6,0,-5,-3,-4,-1
14:43:53:187804,2,-2,-6,-1,-2,-5,-3,-3
14:43:53:195381,2,-2,-6,-1,-2,-5,-3,-3
14:43:53:202802,-9,2,8,3,5,5,-5,-6
14:43:53:210299,6,9,5,6,-3,-3,-4,-4
14:43:53:218537,6,9,5,6,-3,-3,-4,-4
14:43:53:219322,3,18,8,13,10,0,2,2
14:43:53:233529,0,5,21,8,1,1,-2,0
14:43:53:234332,0,5,21,8,1,1,-2,0
14:43:53:240307,-5,-38,-20,-9,-5,-2,-5,-3
14:43:53:247813,0,17,3,4,-2,-1,0,0
14:43:53:255408,0,17,3,4,-2,-1,0,0
14:43:53:262814,4,13,-4,-15,-1,1,6,3
14:43:53:279175,2,24,10,-8,-2,-3,-1,3
14:43:53:279962,2,24,10,-8,-2,-3,-1,3
14:43:53:280785,-3,-19,-4,-6,-4,-4,-8,-6
14:43:53:293956,7,-9,-6,-21,-5,-1,-7,-1
14:43:53:294772,7,-9,-6,-21,-5,-1,-7,-1
14:43:53:300292,7,-8,-12,-2,-3,1,4,4
14:43:53:307772,-8,-6,1,8,11,3,-1,-1
14:43:53:315364,-8,-6,1,8,11,3,-1,-1
14:43:53:322793,-5,4,-2,-1,-1,-1,-2,-2
14:43:53:330298,-11,-11,-10,2,0,-2,4,-2
14:43:53:338529,-11,-11,-10,2,0,-2,4,-2
14:43:53:339317,0,15,10,0,-1,-1,-1,-3
14:43:53:353513,-1,-13,11,2,-4,0,0,1
14:43:53:354315,-1,-13,11,2,-4,0,0,1
14:43:53:360311,-6,-14,-3,5,-2,-3,-3,-3
14:43:53:367805,-2,0,-4,0,1,0,-2,-4
14:43:53:375382,-2,0,-4,0,1,0,-2,-4
14:43:53:382805,3,-9,-20,0,-5,1,3,2
14:43:53:399213,-20,-5,-6,0,-1,-3,-6,-4
14:43:53:400000,-20,-5,-6,0,-1,-3,-6,-4
14:43:53:400786,3,13,0,0,-2,-6,-1,0
14:43:53:413522,5,2,8,-3,-5,2,2,3
14:43:53:414312,5,2,8,-3,-5,2,2,3
14:43:53:436644,-1,7,7,2,5,0,-3,-1
14:43:53:437448,4,-3,-5,6,4,-1,0,1
14:43:53:438268,4,-3,-5,6,4,-1,0,1
14:43:53:442834,3,-9,-2,-4,-2,2,3,2
14:43:53:450338,-1,-6,-5,2,-2,2,3,-1
14:43:53:458513,-1,-6,-5,2,-2,2,3,-1
14:43:53:459312,0,17,7,1,-1,-2,-1,1
14:43:53:473515,-12,-3,1,-4,-2,-5,1,-3
14:43:53:474319,-12,-3,1,-4,-2,-5,1,-3
14:43:53:480360,0,13,4,-3,-2,-2,-4,-2
14:43:53:487834,2,-12,-7,-2,1,1,-2,-2
14:43:53:495333,2,-12,-7,-2,1,1,-2,-2
14:43:53:502777,-2,2,-13,-10,-5,-1,11,2
14:43:53:510330,4,-10,-20,4,3,-1,-3,-2
14:43:53:518553,4,-10,-20,4,3,-1,-3,-2
14:43:53:519331,-4,15,11,10,3,-1,-2,-1
14:43:53:533498,2,10,2,-7,-7,-2,-5,-2
14:43:53:534313,2,10,2,-7,-7,-2,-5,-2
14:43:53:548485,1,-14,-4,5,3,-1,0,-1
14:43:53:549259,2,12,-3,1,-1,0,-5,1
14:43:53:571694,2,12,-3,1,-1,0,-5,1
14:43:53:572464,-2,3,5,-5,-3,-2,-4,-1
14:43:53:573275,8,3,5,-4,1,2,3,1
14:43:53:578537,8,3,5,-4,1,2,3,1
14:43:53:579328,-3,-10,-13,-5,-2,0,-1,3
14:43:53:593501,-29,-5,5,6,1,0,4,-2
14:43:53:594324,-29,-5,5,6,1,0,4,-2
14:43:53:600256,-8,1,6,-1,1,-2,3,0
14:43:53:607754,6,8,1,-5,-5,-3,-2,6
14:43:53:615367,6,8,1,-5,-5,-3,-2,6
14:43:53:622824,2,-27,-17,2,2,-1,0,0
14:43:53:630314,7,-8,-2,1,8,1,0,-2
14:43:53:638526,7,-8,-2,1,8,1,0,-2
14:43:53:639317,5,0,-11,-4,-4,2,0,1
14:43:53:653524,-2,0,-1,-5,-5,0,3,-2
14:43:53:654328,-2,0,-1,-5,-5,0,3,-2
14:43:53:660319,-4,-6,-16,-5,-2,-3,-4,-4
14:43:53:667825,7,1,3,-11,-11,-6,-3,-3
14:43:53:683514,7,1,3,-11,-11,-6,-3,-3
14:43:53:684331,9,0,0,4,-1,-1,-8,-3
14:43:53:699161,-11,-28,2,1,-1,-5,-8,2
14:43:53:700012,-11,-28,2,1,-1,-5,-8,2
14:43:53:700803,-6,6,9,-1,8,2,3,1
14:43:53:713501,-2,16,-2,-5,3,1,2,0
14:43:53:714310,-2,16,-2,-5,3,1,2,0
14:43:53:720288,-12,2,14,-2,-5,-2,0,-2
14:43:53:727829,0,3,10,2,-2,-4,-18,-10
14:43:53:735350,0,3,10,2,-2,-4,-18,-10
14:43:53:742792,2,9,8,-1,-2,-2,-4,-1
14:43:53:750310,0,-11,-8,6,3,1,2,-1
14:43:53:758563,0,-11,-8,6,3,1,2,-1
14:43:53:759344,1,-12,-11,-5,-6,-3,-2,-2
14:43:53:773482,-9,0,-9,1,3,2,7,0
14:43:53:774316,-9,0,-9,1,3,2,7,0
14:43:53:780302,3,-3,0,-4,-2,-1,-2,-2
14:43:53:787791,2,6,5,4,-2,-3,-4,-2
14:43:53:795376,2,6,5,4,-2,-3,-4,-2
14:43:53:802859,-6,-33,-25,-5,1,1,1,-1
14:43:53:810352,5,8,1,0,-4,0,-2,-2
14:43:53:826044,5,8,1,0,-4,0,-2,-2
14:43:53:826837,-1,-6,-2,1,-2,-2,4,1
14:43:53:833514,5,-16,-6,8,-3,1,9,1
14:43:53:834332,5,-16,-6,8,-3,1,9,1
14:43:53:848457,10,22,21,5,2,5,-1,0
14:43:53:849269,-1,4,-9,0,-1,-6,-12,-7
14:43:53:855364,-1,4,-9,0,-1,-6,-12,-7
14:43:53:862802,5,-10,-3,-7,-5,-3,-5,-2
14:43:53:870280,0,-31,12,-5,-2,-2,1,0
14:43:53:878530,0,-31,12,-5,-2,-2,1,0
14:43:53:879328,6,8,0,-3,2,2,3,1
14:43:53:893541,-1,7,-10,-4,-3,-3,2,1
14:43:53:894326,-1,7,-10,-4,-3,-3,2,1
14:43:53:900291,-6,4,7,5,0,-5,1,1
14:43:53:907809,3,3,-1,-4,0,1,-5,-2
14:43:53:915388,3,3,-1,-4,0,1,-5,-2
14:43:53:922845,-5,15,0,3,4,1,-4,0
14:43:53:930310,2,7,-6,-14,0,-1,0,0
14:43:53:938530,2,7,-6,-14,0,-1,0,0
14:43:53:939312,-8,-29,-20,-6,-5,-1,2,-2
14:43:53:953520,7,11,9,6,-4,-1,-1,4
14:43:53:954334,7,11,9,6,-4,-1,-1,4
14:43:53:960315,-1,24,5,-3,4,4,-4,-4
14:43:53:976000,-8,4,3,-1,0,-1,3,1
14:43:53:976916,-8,4,3,-1,0,-1,3,1
14:43:53:982821,-12,-5,-3,3,-3,-5,-9,-6
14:43:53:990271,4,6,0,-7,-2,0,1,1
14:43:53:997935,4,6,0,-7,-2,0,1,1
14:43:54:14159,-1,8,6,7,3,-3,-8,-4
14:43:54:14955,2,-5,3,8,3,1,1,-2
14:43:54:15823,2,-5,3,8,3,1,1,-2
14:43:54:20308,3,-4,3,-7,-6,-2,-4,-1
14:43:54:35992,-4,8,-6,0,4,4,7,0
14:43:54:36814,-4,8,-6,0,4,4,7,0
14:43:54:42802,3,10,9,3,-4,-1,3,3
14:43:54:50268,4,-6,-22,-17,-5,-2,-3,-1
14:43:54:57912,4,-6,-22,-17,-5,-2,-3,-1
14:43:54:65286,-6,13,0,-4,-3,-1,2,-1
14:43:54:73544,-8,-17,-2,6,-1,0,-2,-1
14:43:54:74326,-8,-17,-2,6,-1,0,-2,-1
14:43:54:80308,-3,-17,-6,7,-4,-1,-3,1
14:43:54:104181,1,13,6,7,2,-1,-5,-3
14:43:54:104972,1,13,6,7,2,-1,-5,-3
14:43:54:105760,-1,-15,2,0,2,1,1,-5
14:43:54:110332,9,12,5,0,-1,2,-2,-1
14:43:54:117838,9,12,5,0,-1,2,-2,-1
14:43:54:125307,-1,-1,6,-7,-3,-1,4,-1
14:43:54:133526,-15,5,2,-5,0,0,-4,-1
14:43:54:134352,-15,5,2,-5,0,0,-4,-1
14:43:54:140301,-4,-13,4,-10,-4,-2,6,1
14:43:54:156007,6,-5,5,6,1,-3,-6,-2
14:43:54:156832,6,-5,5,6,1,-3,-6,-2
14:43:54:162777,-4,-2,-19,-6,-2,-2,-3,0
14:43:54:170326,-5,-7,-8,-9,4,-4,-2,-1
14:43:54:177955,-5,-7,-8,-9,4,-4,-2,-1
14:43:54:185300,13,10,8,6,3,-3,-2,0
14:43:54:193503,-3,3,5,7,4,5,8,3
14:43:54:194371,-3,3,5,7,4,5,8,3
14:43:54:200324,0,-41,-29,-5,-6,-2,-2,-2
14:43:54:216054,-24,-6,1,-1,-1,-1,-3,-5
14:43:54:216826,-24,-6,1,-1,-1,-1,-3,-5
14:43:54:222801,-3,5,7,1,-3,-2,-11,-6
14:43:54:230333,3,-13,-8,-11,-9,-5,-4,0
14:43:54:237920,3,-13,-8,-11,-9,-5,-4,0
14:43:54:245320,-4,1,-2,-4,1,-1,-4,-1
14:43:54:253530,6,37,19,5,1,-5,-4,-1
14:43:54:254363,6,37,19,5,1,-5,-4,-1
14:43:54:260347,0,-2,12,-1,-1,2,3,3
14:43:54:276672,-5,0,-5,7,-2,-4,-2,-1
14:43:54:277502,-5,0,-5,7,-2,-4,-2,-1
14:43:54:282822,6,10,-6,2,4,3,11,4
14:43:54:290300,-1,-10,1,-8,-2,1,0,-3
14:43:54:297923,-1,-10,1,-8,-2,1,0,-3
14:43:54:305315,7,6,-5,1,1,0,-3,0
14:43:54:313482,-13,-11,-6,2,-1,0,3,-1
14:43:54:314291,-13,-11,-6,2,-1,0,3,-1
14:43:54:320345,-5,1,1,-6,-2,-5,-5,-2
14:43:54:335971,5,2,7,-1,-1,3,3,1
14:43:54:336829,5,2,7,-1,-1,3,3,1
14:43:54:342809,-9,-10,-7,-3,2,0,4,1
14:43:54:350319,0,-4,5,-4,-6,-4,-9,-3
14:43:54:357877,0,-4,5,-4,-6,-4,-9,-3
14:43:54:365332,3,0,3,2,-6,-7,-14,-7
14:43:54:381686,-3,-28,-17,5,6,3,5,3
14:43:54:382448,-3,-28,-17,5,6,3,5,3
14:43:54:383246,4,9,6,0,-1,1,0,1
14:43:54:396017,1,15,5,-7,-7,-3,-1,-2
14:43:54:396904,1,15,5,-7,-7,-3,-1,-2
14:43:54:402853,1,8,7,-3,-1,3,2,-1
14:43:54:410329,4,16,-2,6,2,-4,2,-1
14:43:54:417981,4,16,-2,6,2,-4,2,-1
14:43:54:425344,-2,12,6,4,2,3,2,1
14:43:54:433491,-3,-4,-5,-7,-9,-6,-14,-8
14:43:54:434311,-3,-4,-5,-7,-9,-6,-14,-8
14:43:54:440354,-5,-9,-9,-6,-6,-6,-8,-1
14:43:54:455971,7,-8,-2,-1,2,1,-1,0
14:43:54:456784,7,-8,-2,-1,2,1,-1,0
14:43:54:462842,-1,-1,3,0,-1,-3,-5,-5
14:43:54:470337,0,-1,-2,-4,-4,-1,-2,-2
14:43:54:477848,0,-1,-2,-4,-4,-1,-2,-2
14:43:54:485352,-11,-24,-5,5,7,1,-2,-2
14:43:54:493520,-2,8,6,2,-4,-1,-2,-2
14:43:54:494308,-2,8,6,2,-4,-1,-2,-2
14:43:54:500294,-9,5,-1,-4,5,5,2,-4
14:43:54:516017,10,-12,-19,-10,2,-3,-4,0
14:43:54:516834,10,-12,-19,-10,2,-3,-4,0
14:43:54:522752,-2,-10,-6,2,-4,-4,-1,-1
14:43:54:530359,-2,-1,2,1,3,-1,11,6
14:43:54:537866,-2,-1,2,1,3,-1,11,6
14:43:54:545298,6,8,5,-1,1,1,4,1
14:43:54:553535,-4,-8,-1,-4,-4,0,-1,-2
14:43:54:554328,-4,-8,-1,-4,-4,0,-1,-2
14:43:54:560323,4,-16,1,-2,-7,-1,-1,2
14:43:54:576027,-5,12,-1,-2,6,1,3,-1
14:43:54:576824,-5,12,-1,-2,6,1,3,-1
14:43:54:582796,2,0,-7,0,3,1,2,1
14:43:54:590334,-3,-8,-2,2,-3,1,-3,4
14:43:54:597931,-3,-8,-2,2,-3,1,-3,4
14:43:54:605365,2,-1,-11,-29,-12,0,1,-1
14:43:54:613502,0,3,6,2,-1,-2,-4,-2
14:43:54:614354,0,3,6,2,-1,-2,-4,-2
14:43:54:620341,-7,11,1,4,0,-6,-9,-1
14:43:54:636045,2,-4,1,0,-3,-1,8,4
14:43:54:636914,2,-4,1,0,-3,-1,8,4
14:43:54:642787,-16,6,6,4,-2,-1,2,1
14:43:54:650289,2,-11,-6,11,4,0,1,0
14:43:54:657939,2,-11,-6,11,4,0,1,0
14:43:54:665328,-7,29,-3,4,7,-1,-7,-3
14:43:54:673452,6,-1,3,3,0,3,-2,-2
14:43:54:674269,6,-1,3,3,0,3,-2,-2
14:43:54:680344,3,2,-5,1,2,0,7,3
14:43:54:696021,-6,2,1,-5,-4,-6,1,-1
14:43:54:696915,-6,2,1,-5,-4,-6,1,-1
14:43:54:702808,2,-6,5,2,-4,-1,-7,-4
14:43:54:710304,2,2,11,-14,-10,-4,-6,-4
14:43:54:717846,2,2,11,-14,-10,-4,-6,-4
14:43:54:725326,4,-1,10,-4,-8,-2,0,0
14:43:54:733511,-4,2,-10,-8,-5,1,4,0
14:43:54:734289,-4,2,-10,-8,-5,1,4,0
14:43:54:740318,11,-6,-11,4,-1,-3,-6,-7
14:43:54:756005,-1,-7,-11,-1,2,-1,-1,-3
14:43:54:756803,-1,-7,-11,-1,2,-1,-1,-3
14:43:54:762845,5,-11,-7,4,6,1,3,2
14:43:54:770341,2,9,8,2,3,1,-5,1
14:43:54:777878,2,9,8,2,3,1,-5,1
14:43:54:785281,0,14,8,2,-6,-2,4,-5
14:43:54:793506,-6,-1,-2,0,-4,-2,10,-1
14:43:54:794320,-6,-1,-2,0,-4,-2,10,-1
14:43:54:800297,-4,-27,-3,-6,-1,-2,-6,2
14:43:54:815976,0,15,12,3,0,-6,-5,-2
14:43:54:816798,0,15,12,3,0,-6,-5,-2
14:43:54:822788,-7,-2,2,-3,7,4,4,0
14:43:54:830263,-23,-21,-14,-1,-1,-1,-9,-2
14:43:54:837828,-23,-21,-14,-1,-1,-1,-9,-2
14:43:54:845279,-6,17,-8,-3,-3,-3,-1,0
14:43:54:853522,13,-9,-10,2,2,0,-7,-1
14:43:54:854335,13,-9,-10,2,2,0,-7,-1
14:43:54:860329,0,-6,1,0,1,3,-5,-4
14:43:54:875989,-5,-13,-3,4,1,0,-2,-1
14:43:54:876813,-5,-13,-3,4,1,0,-2,-1
14:43:54:882785,-1,-3,0,0,-7,-4,-6,-2
14:43:54:890327,14,3,3,-3,-1,3,-4,-3
14:43:54:897915,14,3,3,-3,-1,3,-4,-3
14:43:54:914180,-2,0,3,2,-3,-4,-2,-2
14:43:54:915034,-2,0,3,2,-3,-4,-2,-2
14:43:54:915812,2,6,1,-4,-8,-5,4,1
14:43:54:936641,-3,-1,-2,2,1,0,6,0
14:43:54:937444,-3,-1,-2,2,1,0,6,0
14:43:54:938293,3,-7,-2,2,6,5,1,2
14:43:54:942815,5,4,-4,1,-2,-3,-6,3
14:43:54:958568,5,4,-4,1,-2,-3,-6,3
14:43:54:959347,-2,-8,3,4,0,-5,1,-1
14:43:54:965352,-1,7,6,2,-2,-2,1,2
14:43:54:973499,-1,7,6,2,-2,-2,1,2
14:43:54:974304,-3,-2,-14,-3,2,1,-5,-3
14:43:54:987797,-1,-12,-2,-3,-2,-1,0,-1
14:43:54:996080,-1,-12,-2,-3,-2,-1,0,-1
14:43:54:996942,-17,3,-14,7,-1,0,2,0
14:43:55:2850,-3,-7,-8,-2,0,0,4,-1
14:43:55:18556,-3,-7,-8,-2,0,0,4,-1
14:43:55:19338,-6,-48,-22,2,-4,-3,0,-1
14:43:55:25281,2,-2,-5,-5,-4,1,1,-1
14:43:55:33539,2,-2,-5,-5,-4,1,1,-1
14:43:55:34316,5,14,8,1,4,0,-2,-1
14:43:55:47825,-4,-18,-15,-2,-2,-1,5,3
14:43:55:56038,-4,-18,-15,-2,-2,-1,5,3
14:43:55:56922,1,33,7,-7,-2,7,7,1
14:43:55:62841,-3,10,6,-2,1,-3,-10,-7
14:43:55:78517,-3,10,6,-2,1,-3,-10,-7
14:43:55:79322,7,0,1,-1,-6,-5,-3,1
14:43:55:85299,-5,-14,-7,5,-1,-1,0,0
14:43:55:93549,-5,-14,-7,5,-1,-1,0,0
14:43:55:94339,0,-12,3,-9,-7,-1,-1,-1
14:43:55:107813,-4,7,9,-6,-5,-2,1,0
14:43:55:116046,-4,7,9,-6,-5,-2,1,0
14:43:55:116922,-4,-3,-7,1,1,-1,2,0
14:43:55:122814,-3,-25,-9,0,-4,-3,1,0
14:43:55:138541,-3,-25,-9,0,-4,-3,1,0
14:43:55:139308,-4,9,12,-2,-2,-2,-2,-2
14:43:55:145291,-25,-16,-12,-3,1,0,4,-1
14:43:55:153555,-25,-16,-12,-3,1,0,4,-1
14:43:55:154356,-1,-7,-12,-5,-4,-2,0,0
14:43:55:167800,-1,19,10,0,1,0,6,0
14:43:55:176027,-1,19,10,0,1,0,6,0
14:43:55:176824,-7,-2,3,11,3,-1,-3,-4
14:43:55:182828,2,-2,-3,-2,0,4,2,-1
14:43:55:198506,2,-2,-3,-2,0,4,2,-1
14:43:55:199336,14,-1,8,0,2,1,-5,-1
14:43:55:205294,5,-10,4,-3,2,-2,-4,-3
14:43:55:213528,5,-10,4,-3,2,-2,-4,-3
14:43:55:214300,3,9,7,-2,0,-1,2,1
14:43:55:227852,9,13,-1,1,2,2,-1,0
14:43:55:236059,9,13,-1,1,2,2,-1,0
14:43:55:236829,-2,-22,-4,3,0,-3,-13,-6
14:43:55:242806,-20,9,-5,-5,-2,-3,-2,-2
14:43:55:258501,-20,9,-5,-5,-2,-3,-2,-2
14:43:55:259300,-10,24,2,-6,-1,0,1,2
14:43:55:265270,12,10,-4,-1,-2,-1,1,1
14:43:55:273565,12,10,-4,-1,-2,-1,1,1
14:43:55:274315,2,13,1,-6,-8,-2,3,2
14:43:55:287849,3,13,10,-3,-4,-2,-5,1
14:43:55:296014,3,13,10,-3,-4,-2,-5,1
14:43:55:296793,3,-6,-5,0,4,1,2,3
14:43:55:302799,6,11,0,2,-3,-2,-3,-1
14:43:55:318327,6,11,0,2,-3,-2,-3,-1
14:43:55:325985,0,-6,16,1,1,3,-1,-1
14:43:55:326802,-8,-16,-8,-23,-5,-3,-4,-4
14:43:55:333562,-8,-16,-8,-23,-5,-3,-4,-4
14:43:55:334327,-21,-22,-5,-9,-2,-3,-4,-5
14:43:55:347829,12,8,14,8,-2,1,0,1
14:43:55:355998,12,8,14,8,-2,1,0,1
14:43:55:356792,-3,-9,-7,-4,-2,0,-3,-7
14:43:55:362819,-3,-8,-2,-3,0,0,-6,-2
14:43:55:378479,-3,-8,-2,-3,0,0,-6,-2
14:43:55:379273,3,5,0,2,-3,-1,3,2
14:43:55:385346,5,-19,-15,2,3,-3,-5,-1
14:43:55:393513,5,-19,-15,2,3,-3,-5,-1
14:43:55:394298,0,3,-4,-1,0,-4,-4,-1
14:43:55:407812,3,12,5,2,-1,-1,-3,-1
14:43:55:416022,3,12,5,2,-1,-1,-3,-1
14:43:55:416812,-14,-13,-2,1,0,4,9,0
14:43:55:422870,1,10,4,5,-1,-5,-11,-7
14:43:55:438575,1,10,4,5,-1,-5,-11,-7
14:43:55:439325,-14,4,5,4,-5,-4,-8,-4
14:43:55:445336,-6,-31,-4,3,13,3,3,1
14:43:55:453504,-6,-31,-4,3,13,3,3,1
14:43:55:454298,9,-10,-5,-1,-3,-1,-1,2
14:43:55:467796,-1,9,-3,-4,-4,0,5,2
14:43:55:476043,-1,9,-3,-4,-4,0,5,2
14:43:55:476926,9,25,6,-2,2,1,2,2
14:43:55:482813,3,7,-11,-2,-3,0,6,1
14:43:55:498560,3,7,-11,-2,-3,0,6,1
14:43:55:499343,8,10,-10,-1,-2,-1,-2,-1
14:43:55:505326,-12,-9,2,0,-2,-1,3,-2
14:43:55:513576,-12,-9,2,0,-2,-1,3,-2
14:43:55:514338,-10,-19,-6,-3,-3,-3,-1,-1
14:43:55:527796,-2,6,6,2,-1,2,8,1
14:43:55:536026,-2,6,6,2,-1,2,8,1
14:43:55:536852,-20,9,1,-2,-4,-1,-4,-4
14:43:55:542831,1,-3,5,-5,-8,-2,-5,-2
14:43:55:558539,1,-3,5,-5,-8,-2,-5,-2
14:43:55:559308,11,10,0,1,-2,-3,-7,-5
14:43:55:565299,1,6,6,0,-3,-3,-9,-5
14:43:55:573551,1,6,6,0,-3,-3,-9,-5
14:43:55:574359,5,14,-6,-2,0,0,1,3
14:43:55:587828,3,-4,15,4,5,4,-1,-2
14:43:55:596050,3,-4,15,4,5,4,-1,-2
14:43:55:596842,3,-14,-7,-6,-1,-4,-3,3
14:43:55:602818,-1,-7,-4,-3,-5,-5,2,2
14:43:55:618541,-1,-7,-4,-3,-5,-5,2,2
14:43:55:619312,11,15,21,3,0,0,-4,-2
14:43:55:625323,-4,-1,-2,1,-11,-2,-2,-2
14:43:55:633560,-4,-1,-2,1,-11,-2,-2,-2
14:43:55:634363,-5,-12,-2,2,1,2,3,0
14:43:55:656659,0,-3,1,9,5,1,3,0
14:43:55:657481,0,-3,1,9,5,1,3,0
14:43:55:658278,-1,-29,-1,1,-3,-2,0,-3
14:43:55:662862,-8,-15,-10,-6,-5,-3,-3,-1
14:43:55:678514,-8,-15,-10,-6,-5,-3,-3,-1
14:43:55:679323,-5,13,-1,2,6,3,3,-1
14:43:55:685333,3,7,-6,-4,-5,-1,0,-1
14:43:55:693525,3,7,-6,-4,-5,-1,0,-1
14:43:55:694286,-4,4,-1,-4,-3,-5,-1,1
14:43:55:707809,6,3,-11,-2,5,2,3,0
14:43:55:715978,6,3,-11,-2,5,2,3,0
14:43:55:716803,1,-12,-1,-18,-7,2,4,2
14:43:55:722848,-3,4,0,-5,2,1,1,0
14:43:55:738562,-3,4,0,-5,2,1,1,0
14:43:55:739345,5,9,1,9,-1,-2,-5,-3
14:43:55:745301,4,-11,0,-1,-1,-3,-8,-4
14:43:55:753471,4,-11,0,-1,-1,-3,-8,-4
14:43:55:754338,2,4,-2,1,0,-1,-5,-2
14:43:55:767801,3,-19,-17,-3,4,0,1,2
14:43:55:776048,3,-19,-17,-3,4,0,1,2
14:43:55:776927,-3,-8,-7,-3,-3,-2,-5,-4
14:43:55:782829,-1,2,-4,-2,1,0,-3,2
14:43:55:798556,-1,2,-4,-2,1,0,-3,2
14:43:55:799356,-2,0,-19,-4,-1,-1,-3,-3
14:43:55:805325,-5,17,11,1,-4,0,-4,-3
14:43:55:813547,-5,17,11,1,-4,0,-4,-3
14:43:55:814357,2,-1,1,-2,-3,0,3,2
14:43:55:827840,-12,-16,-4,1,-4,-7,-10,-5
14:43:55:836044,-12,-16,-4,1,-4,-7,-10,-5
14:43:55:836826,5,7,8,1,4,2,5,3
14:43:55:842796,3,8,-1,-9,-3,1,3,1
14:43:55:858529,3,8,-1,-9,-3,1,3,1
14:43:55:859319,-4,-11,1,-1,-4,-4,-4,-2
14:43:55:865319,-1,-4,-4,2,-2,-1,8,-5
14:43:55:872962,-1,-4,-4,2,-2,-1,8,-5
14:43:55:880326,3,0,-13,-4,0,-2,-2,1
14:43:55:887843,-2,12,1,2,0,-2,9,7
14:43:55:903537,-2,12,1,2,0,-2,9,7
14:43:55:904327,-6,-4,2,1,-4,-5,-2,-7
14:43:55:910295,-9,-12,-4,-8,0,0,-2,-2
14:43:55:918559,-9,-12,-4,-8,0,0,-2,-2
14:43:55:919349,2,-1,1,1,0,-2,-6,-2
14:43:55:925304,0,1,-3,-6,-8,-8,-7,-2
14:43:55:941040,0,1,-3,-6,-8,-8,-7,-2
14:43:55:941837,-2,-3,2,-5,-3,-2,5,-1
14:43:55:947819,3,11,7,-22,-4,1,-5,0
14:43:55:956045,3,11,7,-22,-4,1,-5,0
14:43:55:956836,3,1,-2,-3,-5,-1,5,0
14:43:55:970311,-10,-2,1,13,5,2,-3,-2
14:43:55:978534,-10,-2,1,13,5,2,-3,-2
14:43:55:979347,-4,11,4,1,1,1,9,1
14:43:55:985323,5,-14,-6,1,-1,0,-4,0
14:43:55:992943,5,-14,-6,1,-1,0,-4,0
14:43:56:318,-2,11,0,3,0,-3,-12,-4
14:43:56:7811,4,-9,2,0,-1,-3,-7,-4
14:43:56:16069,4,-9,2,0,-1,-3,-7,-4
14:43:56:16923,3,-9,3,7,5,4,12,6
14:43:56:30291,8,1,4,3,4,2,2,3
14:43:56:38555,8,1,4,3,4,2,2,3
14:43:56:39334,-6,-33,-17,0,2,-4,-9,0
14:43:56:45313,-7,-13,-3,3,1,1,-3,-4
14:43:56:52925,-7,-13,-3,3,1,1,-3,-4
14:43:56:60332,-22,-10,-16,-7,2,5,6,-2
14:43:56:67861,5,-5,-3,-2,-6,-7,1,2
14:43:56:76010,5,-5,-3,-2,-6,-7,1,2
14:43:56:76816,5,-9,2,3,0,-1,-14,-5
14:43:56:90308,-6,1,-8,-1,1,4,23,1
14:43:56:98544,-6,1,-8,-1,1,4,23,1
14:43:56:99304,4,8,-2,1,-1,0,-1,6
14:43:56:105334,3,11,-2,-2,-5,-3,-6,0
14:43:56:112823,3,11,-2,-2,-5,-3,-6,0
14:43:56:120301,2,5,7,-2,-6,-3,-7,-5
14:43:56:127850,4,12,-6,-15,-8,-1,-6,-7
14:43:56:136009,4,12,-6,-15,-8,-1,-6,-7
14:43:56:136807,2,5,5,-2,-3,0,-2,2
14:43:56:150338,-2,-15,-6,5,-3,-2,-3,0
14:43:56:158534,-2,-15,-6,5,-3,-2,-3,0
14:43:56:159307,10,15,17,2,6,2,15,4
14:43:56:165339,-2,4,8,0,3,1,1,1
14:43:56:172854,-2,4,8,0,3,1,1,1
14:43:56:180290,-1,8,6,1,-1,-3,5,3
14:43:56:187798,-4,24,3,0,-1,-2,3,-3
14:43:56:196063,-4,24,3,0,-1,-2,3,-3
14:43:56:196845,-6,3,0,0,-5,3,4,2
14:43:56:210369,1,-2,-14,-1,0,-2,-8,1
14:43:56:218523,1,-2,-14,-1,0,-2,-8,1
14:43:56:219327,0,-12,-15,-5,-2,-1,-1,0
14:43:56:225305,5,3,11,5,1,-2,1,-1
14:43:56:232870,5,3,11,5,1,-2,1,-1
14:43:56:240306,-20,-3,0,3,0,3,-2,-4
14:43:56:247810,-3,-2,7,4,9,6,12,0
14:43:56:256051,-3,-2,7,4,9,6,12,0
14:43:56:256837,-2,-5,-6,4,1,-9,-23,-7
14:43:56:270298,-1,-4,-1,4,1,-3,-9,1
14:43:56:278525,-1,-4,-1,4,1,-3,-9,1
14:43:56:279321,1,-2,1,0,1,-3,-6,-5
14:43:56:285315,-3,-18,-12,-1,-2,-5,-7,-2
14:43:56:292929,-3,-18,-12,-1,-2,-5,-7,-2
14:43:56:300308,3,-15,-16,-7,-4,-3,-2,-1
14:43:56:307845,5,10,21,-5,-4,1,1,1
14:43:56:315983,5,10,21,-5,-4,1,1,1
14:43:56:316804,-1,-2,7,-1,2,1,-4,-5
14:43:56:330332,-1,-3,-15,-21,-11,-3,-5,2
14:43:56:338546,-1,-3,-15,-21,-11,-3,-5,2
14:43:56:339357,5,-14,5,-2,-7,-3,1,1
14:43:56:345350,-4,-8,-6,4,4,4,0,-2
14:43:56:352853,-4,-8,-6,4,4,4,0,-2
14:43:56:360360,2,8,-11,-7,-4,0,7,2
14:43:56:367861,-3,24,7,12,-12,-6,-1,-4
14:43:56:376023,-3,24,7,12,-12,-6,-1,-4
14:43:56:376841,-15,-6,-2,13,13,6,-2,-3
14:43:56:399208,6,-10,-11,1,2,0,3,3
14:43:56:400024,6,-10,-11,1,2,0,3,3
14:43:56:400807,2,-11,10,-5,-11,-8,-8,-1
14:43:56:405315,-6,-18,-1,-5,-3,-4,-9,-2
14:43:56:412951,-6,-18,-1,-5,-3,-4,-9,-2
14:43:56:420335,3,7,-1,0,4,3,-2,-1
14:43:56:427799,3,-6,-9,-7,-3,-3,2,0
14:43:56:435998,3,-6,-9,-7,-3,-3,2,0
14:43:56:436805,-1,12,-12,-12,-2,-4,3,1
14:43:56:450293,-8,1,14,6,7,8,1,-1
14:43:56:458551,-8,1,14,6,7,8,1,-1
14:43:56:459337,5,18,18,0,-1,-4,-4,1
14:43:56:465301,-1,1,0,11,5,-1,3,4
14:43:56:472869,-1,1,0,11,5,-1,3,4
14:43:56:480335,16,-6,-20,-2,-5,-3,-8,4
14:43:56:487842,0,-2,-7,0,5,-1,-14,-5
14:43:56:496042,0,-2,-7,0,5,-1,-14,-5
14:43:56:496817,-6,6,1,-3,-7,-6,-4,-5
14:43:56:510373,3,-8,-8,3,1,-3,10,0
14:43:56:518518,3,-8,-8,3,1,-3,10,0
14:43:56:519288,-2,-4,3,1,6,10,12,1
14:43:56:525364,-6,-11,-16,-8,-5,1,-3,0
14:43:56:532841,-6,-11,-16,-8,-5,1,-3,0
14:43:56:540314,-12,3,4,-4,-6,-5,-4,-2
14:43:56:547802,5,-5,-14,2,-1,0,1,-2
14:43:56:556021,5,-5,-14,2,-1,0,1,-2
14:43:56:556832,-12,-50,-27,-5,0,0,7,-3
14:43:56:570345,-1,-1,1,-27,-3,-2,-1,1
14:43:56:578513,-1,-1,1,-27,-3,-2,-1,1
14:43:56:579340,11,6,5,1,4,1,-2,3
14:43:56:585308,1,12,-6,5,-1,0,1,-4
14:43:56:592867,1,12,-6,5,-1,0,1,-4
14:43:56:600308,5,22,10,-3,-3,-6,0,-1
14:43:56:607811,-2,-2,7,3,3,2,-4,0
14:43:56:616070,-2,-2,7,3,3,2,-4,0
14:43:56:616838,-13,-59,-19,-3,-6,-1,-6,-22
14:43:56:630269,-21,-4,10,6,2,0,0,-1
14:43:56:638523,-21,-4,10,6,2,0,0,-1
14:43:56:639344,5,11,9,2,-2,-1,4,4
14:43:56:645287,4,12,3,-30,-10,-1,1,-3
14:43:56:652847,4,12,3,-30,-10,-1,1,-3
14:43:56:660318,-7,13,2,3,3,3,1,1
14:43:56:667853,-4,2,10,7,0,-2,0,4
14:43:56:676070,-4,2,10,7,0,-2,0,4
14:43:56:676847,4,21,8,1,-2,2,3,2
14:43:56:690309,-2,-5,8,8,1,-1,-2,-2
14:43:56:698552,-2,-5,8,8,1,-1,-2,-2
14:43:56:699333,5,-2,9,0,-8,-4,10,3
14:43:56:705326,-19,16,4,-15,-2,-7,-10,-8
14:43:56:712964,-19,16,4,-15,-2,-7,-10,-8
14:43:56:720323,-5,8,-2,4,8,2,-2,4
14:43:56:727815,12,-10,-5,3,-5,-3,-4,-3
14:43:56:735993,12,-10,-5,3,-5,-3,-4,-3
14:43:56:736793,1,-4,-5,-8,-2,-5,-6,-1
14:43:56:750311,1,7,4,10,5,2,-4,0
14:43:56:766704,1,7,4,10,5,2,-4,0
14:43:56:767468,3,-34,-3,-6,-8,-3,1,-1
14:43:56:768301,3,5,15,3,0,1,5,2
14:43:56:772870,3,5,15,3,0,1,5,2
14:43:56:788437,-4,-6,-12,10,3,1,-8,-4
14:43:56:789256,1,-6,-22,-3,-2,-4,1,3
14:43:56:796009,1,-6,-22,-3,-2,-4,1,3
14:43:56:796831,-3,-16,-7,0,-3,-4,-8,-1
14:43:56:810325,0,-1,-8,8,-3,-4,0,-2
14:43:56:818511,0,-1,-8,8,-3,-4,0,-2
14:43:56:819293,-3,9,-2,-1,3,0,2,-1
14:43:56:833517,9,-8,-9,-2,-1,0,-6,-3
14:43:56:834303,9,-8,-9,-2,-1,0,-6,-3
14:43:56:840282,3,31,10,1,3,1,-3,0
14:43:56:847875,3,-5,-3,3,0,-3,3,1
14:43:56:855368,3,-5,-3,3,0,-3,3,1
14:43:56:862820,-5,16,14,1,-2,-3,-4,0
14:43:56:870340,3,11,8,1,-1,-3,-1,1
14:43:56:878525,3,11,8,1,-1,-3,-1,1
14:43:56:879317,-7,-5,0,-19,-2,0,-3,-5
14:43:56:893519,-6,2,-1,3,2,5,1,0
14:43:56:894354,-6,2,-1,3,2,5,1,0
14:43:56:900300,-2,23,-7,0,-5,-1,-1,1
14:43:56:907798,-5,-7,3,-1,-1,-4,0,0
14:43:56:915387,-5,-7,3,-1,-1,-4,0,0
14:43:56:922837,2,1,-2,-2,-1,0,1,3
14:43:56:930313,-4,-2,-28,-7,-1,0,5,-2
14:43:56:938568,-4,-2,-28,-7,-1,0,5,-2
14:43:56:939334,9,-5,-12,-5,-3,0,-3,-3
14:43:56:953534,-1,-13,7,2,1,-1,-5,-6
14:43:56:954343,-1,-13,7,2,1,-1,-5,-6
14:43:56:960320,8,-6,-14,1,-6,-4,-6,-2
14:43:56:967850,-3,-22,-13,-5,-3,1,2,2
14:43:56:975352,-3,-22,-13,-5,-3,1,2,2
14:43:56:982825,-7,-10,7,-7,3,5,2,-2
14:43:56:990313,-3,-3,9,5,-6,-3,-4,-2
14:43:56:998535,-3,-3,9,5,-6,-3,-4,-2
14:43:56:999360,-5,-14,0,7,2,-1,6,-1
14:43:57:13544,2,16,1,-2,0,-4,-7,0
14:43:57:14351,2,16,1,-2,0,-4,-7,0
14:43:57:20324,-2,-6,-15,-1,4,2,2,0
14:43:57:27846,0,29,-4,-5,-9,-1,-3,-1
14:43:57:35344,0,29,-4,-5,-9,-1,-3,-1
14:43:57:42832,-20,4,6,7,1,-3,0,1
14:43:57:50314,2,-8,-8,-2,0,-1,-6,-1
14:43:57:58485,2,-8,-8,-2,0,-1,-6,-1
14:43:57:59307,3,3,12,-15,-4,-1,-7,-1
14:43:57:73470,-19,-12,5,-1,0,2,5,-2
14:43:57:74305,-19,-12,5,-1,0,2,5,-2
14:43:57:80342,8,-7,1,9,-2,-3,-2,-3
14:43:57:87820,9,7,-11,-13,3,2,0,-1
14:43:57:95366,9,7,-11,-13,3,2,0,-1
14:43:57:110995,3,21,3,-4,-5,-3,-3,0
14:43:57:111799,-3,3,2,1,-9,-3,-1,-1
14:43:57:118475,-3,3,2,1,-9,-3,-1,-1
14:43:57:119312,2,-19,-3,-11,-6,0,-4,0
14:43:57:133451,7,16,-23,2,1,-2,-2,0
14:43:57:134269,7,16,-23,2,1,-2,-2,0
14:43:57:140353,3,23,13,6,6,4,-3,-1
14:43:57:147819,1,22,15,-7,-4,0,-2,-2
14:43:57:155356,1,22,15,-7,-4,0,-2,-2
14:43:57:162852,8,4,7,4,-4,-5,-7,-2
14:43:57:170376,4,-6,4,9,5,2,1,-1
14:43:57:178541,4,-6,4,9,5,2,1,-1
14:43:57:179316,-12,-28,-10,-7,-3,0,3,0
14:43:57:193526,-5,-22,-14,-2,0,-6,-11,-3
14:43:57:194299,-5,-22,-14,-2,0,-6,-11,-3
14:43:57:200345,1,-14,-4,-1,-9,-2,5,1
14:43:57:215971,3,21,31,10,2,3,3,1
14:43:57:216810,3,21,31,10,2,3,3,1
14:43:57:222827,2,3,-10,4,4,0,0,2
14:43:57:230345,-20,-55,22,4,-3,-3,-6,-4
14:43:57:238549,-20,-55,22,4,-3,-3,-6,-4
14:43:57:239314,1,17,-1,-6,-9,-6,-8,-5
14:43:57:253501,1,-7,-16,-12,-9,2,7,-1
14:43:57:254302,1,-7,-16,-12,-9,2,7,-1
14:43:57:260357,-7,4,1,-1,2,2,8,2
14:43:57:267814,2,26,16,3,2,-1,-1,-1
14:43:57:275377,2,26,16,3,2,-1,-1,-1
14:43:57:282872,-3,-8,4,3,-3,-5,-2,-2
14:43:57:290367,7,-1,6,-2,0,-3,-6,0
14:43:57:298533,7,-1,6,-2,0,-3,-6,0
14:43:57:299308,8,8,11,3,1,-2,5,-4
14:43:57:313517,6,7,2,-4,3,-1,7,3
14:43:57:314334,6,7,2,-4,3,-1,7,3
14:43:57:320305,-1,9,-2,1,-3,0,-5,-4
14:43:57:327849,-5,-20,-13,-2,-3,-2,-5,-2
14:43:57:335351,-5,-20,-13,-2,-3,-2,-5,-2
14:43:57:342793,-3,-30,-18,-1,0,1,1,-1
14:43:57:350276,3,5,-22,3,-1,-1,-5,-1
14:43:57:358518,3,5,-22,3,-1,-1,-5,-1
14:43:57:359330,-6,7,-17,-4,-2,-1,-4,-3
14:43:57:373531,-1,1,0,2,3,2,1,-3
14:43:57:374312,-1,1,0,2,3,2,1,-3
14:43:57:380315,-5,-4,0,-8,-5,-3,6,4
14:43:57:387811,4,9,0,0,-2,1,4,0
14:43:57:395387,4,9,0,0,-2,1,4,0
14:43:57:402804,5,-6,-4,-4,-3,-3,-4,-1
14:43:57:410321,-8,-30,7,-3,-2,-3,-3,-1
14:43:57:418584,-8,-30,7,-3,-2,-3,-3,-1
14:43:57:419350,0,7,-1,-1,3,4,-8,-3
14:43:57:433562,7,13,-21,-4,-6,-4,-5,0
14:43:57:434348,7,13,-21,-4,-6,-4,-5,0
14:43:57:440343,-7,-9,-9,4,2,0,0,3
14:43:57:447811,2,5,3,0,-2,-1,3,-5
14:43:57:455360,2,5,3,0,-2,-1,3,-5
14:43:57:462812,3,8,-19,4,2,1,5,0
14:43:57:470319,-4,0,16,4,2,0,0,1
14:43:57:478504,-4,0,16,4,2,0,0,1
14:43:57:479279,-1,-1,-7,2,4,0,-5,-1
14:43:57:493508,-4,-4,-4,-5,-2,-1,-3,-1
14:43:57:494331,-4,-4,-4,-5,-2,-1,-3,-1
14:43:57:500313,1,-2,3,-7,-4,0,0,4
14:43:57:507815,-16,-2,6,-9,-1,-1,-6,-2
14:43:57:515371,-16,-2,6,-9,-1,-1,-6,-2
14:43:57:522809,-2,3,5,-1,5,0,1,0
14:43:57:530341,0,-70,-3,13,-2,1,0,1
14:43:57:538505,0,-70,-3,13,-2,1,0,1
14:43:57:539335,4,18,13,0,0,-3,-4,-2
14:43:57:553492,5,23,-4,1,1,0,1,1
14:43:57:554309,5,23,-4,1,1,0,1,1
14:43:57:560316,2,0,1,-1,2,2,3,-1
14:43:57:567822,2,1,6,-1,-5,-5,0,-1
14:43:57:575377,2,1,6,-1,-5,-5,0,-1
14:43:57:582774,-3,3,18,0,-6,-3,-9,-3
14:43:57:590334,-9,28,23,-5,-1,-2,-3,-1
14:43:57:598523,-9,28,23,-5,-1,-2,-3,-1
14:43:57:599300,-23,-39,-19,0,2,1,11,-1
14:43:57:613496,-3,-3,-17,-6,-1,-2,-4,-3
14:43:57:614335,-3,-3,-17,-6,-1,-2,-4,-3
14:43:57:620295,8,14,12,4,-2,-3,-5,2
14:43:57:627767,5,-25,-4,-6,-6,-4,-4,-6
14:43:57:635381,5,-25,-4,-6,-6,-4,-4,-6
14:43:57:642825,2,15,19,-28,-9,0,-1,0
14:43:57:650299,1,-4,-19,1,2,-3,-4,1
14:43:57:658544,1,-4,-19,1,2,-3,-4,1
14:43:57:659332,0,-3,-3,4,-3,-6,-4,-4
14:43:57:673511,6,36,9,-5,-1,3,8,-2
14:43:57:674335,6,36,9,-5,-1,3,8,-2
14:43:57:680293,-2,-6,-5,5,5,3,3,-4
14:43:57:687814,-13,-5,-8,5,0,-3,-15,-6
14:43:57:695390,-13,-5,-8,5,0,-3,-15,-6
14:43:57:702834,2,-9,-1,0,-1,-3,-8,-3
14:43:57:710329,3,-2,-1,-1,5,6,2,5
14:43:57:718557,3,-2,-1,-1,5,6,2,5
14:43:57:719317,-3,-32,-18,-1,-2,-2,-3,8
14:43:57:733518,-10,-27,-13,-4,-6,-2,-5,-2
14:43:57:734393,-10,-27,-13,-4,-6,-2,-5,-2
14:43:57:740286,4,-3,-4,8,-2,-5,-3,-1
14:43:57:756041,2,-9,-12,-24,-6,4,-3,-2
14:43:57:756875,2,-9,-12,-24,-6,4,-3,-2
14:43:57:762825,-5,11,12,2,-1,0,8,-3
14:43:57:770319,2,1,5,8,5,2,7,2
14:43:57:777875,2,1,5,8,5,2,7,2
14:43:57:785314,3,-4,3,-4,2,4,-1,0
14:43:57:793572,9,12,12,5,1,-2,0,3
14:43:57:794341,9,12,12,5,1,-2,0,3
14:43:57:800337,9,3,1,4,-2,-2,-3,3
14:43:57:816047,-1,7,8,-1,-2,0,-12,-6
14:43:57:816850,-1,7,8,-1,-2,0,-12,-6
14:43:57:822833,-10,10,4,5,5,1,-5,-4
14:43:57:830313,2,-1,-7,6,0,0,8,2
14:43:57:837902,2,-1,-7,6,0,0,8,2
14:43:57:845330,-1,-7,-13,-6,-9,-5,-3,-3
14:43:57:861713,-1,2,5,5,3,-3,-1,-2
14:43:57:862486,-1,2,5,5,3,-3,-1,-2
14:43:57:863309,0,-11,-7,-1,2,1,-1,0
14:43:57:875989,2,-18,5,-5,-9,-4,10,1
14:43:57:876842,2,-18,5,-5,-9,-4,10,1
14:43:57:882787,-10,13,5,3,-4,2,4,-2
14:43:57:890307,0,-1,-18,-1,3,1,-3,2
14:43:57:897888,0,-1,-18,-1,3,1,-3,2
14:43:57:905302,-2,-8,-13,-3,-1,0,1,-2
14:43:57:913514,-9,-6,-9,-6,-3,-5,-3,-5
14:43:57:914355,-9,-6,-9,-6,-3,-5,-3,-5
14:43:57:920302,-10,6,14,2,-1,0,-6,-3
14:43:57:936033,1,3,-3,-8,-3,-3,-9,-4
14:43:57:936860,1,3,-3,-8,-3,-3,-9,-4
14:43:57:942823,4,-12,-21,-8,1,0,5,1
14:43:57:950310,-6,6,1,3,3,-2,0,2
14:43:57:957876,-6,6,1,3,3,-2,0,2
14:43:57:965354,9,10,12,4,1,0,-7,-1
14:43:57:973478,11,9,-7,-15,-8,-4,-3,-1
14:43:57:974309,11,9,-7,-15,-8,-4,-3,-1
14:43:57:987843,-3,1,6,3,-1,0,-3,-3
14:43:57:995980,-7,11,3,4,-2,-1,0,-4
14:43:57:996812,-7,11,3,4,-2,-1,0,-4
14:43:58:2840,2,6,-14,0,8,1,4,0
14:43:58:10307,4,4,0,-1,0,0,8,10
14:43:58:17864,4,4,0,-1,0,0,8,10
14:43:58:25338,2,-3,2,3,2,2,5,2
14:43:58:33520,-5,-6,7,-3,0,0,-1,-1
14:43:58:34343,-5,-6,7,-3,0,0,-1,-1
14:43:58:40306,-1,3,4,-9,-10,-10,-4,-5
14:43:58:56010,2,10,-1,4,0,3,5,0
14:43:58:56842,2,10,-1,4,0,3,5,0
14:43:58:62788,-3,-5,0,1,-2,-3,-13,-4
14:43:58:70332,-4,4,10,2,-1,0,-1,0
14:43:58:77854,-4,4,10,2,-1,0,-1,0
14:43:58:85293,3,2,0,0,-1,-3,-1,0
14:43:58:93492,-19,5,1,4,1,3,-2,4
14:43:58:94334,-19,5,1,4,1,3,-2,4
14:43:58:100294,1,19,17,-14,-7,-3,-6,-2
14:43:58:116004,12,-2,-16,-17,-5,-2,1,-2
14:43:58:116820,12,-2,-16,-17,-5,-2,1,-2
14:43:58:122829,-2,-32,-28,-2,-4,1,0,-4
14:43:58:130326,-5,-4,-11,2,1,-2,-5,-3
14:43:58:137886,-5,-4,-11,2,1,-2,-5,-3
14:43:58:145333,6,1,-5,0,2,1,-1,2
14:43:58:153559,0,-6,-4,4,-1,-5,-1,-5
14:43:58:154365,0,-6,-4,4,-1,-5,-1,-5
14:43:58:160363,-5,5,3,1,-2,-2,-2,8
14:43:58:176001,4,-17,9,0,-5,-1,-2,-3
14:43:58:176816,4,-17,9,0,-5,-1,-2,-3
14:43:58:182859,6,1,4,1,-1,-3,2,1
14:43:58:190324,-1,-5,1,1,0,1,1,0
14:43:58:197877,-1,-5,1,1,0,1,1,0
14:43:58:205313,-4,-6,-4,-2,3,4,-7,-7
14:43:58:213489,1,2,9,8,-1,-4,7,-2
14:43:58:214297,1,2,9,8,-1,-4,7,-2
14:43:58:220355,-3,21,11,1,-1,1,6,-1
14:43:58:236051,1,18,9,1,3,2,-4,-2
14:43:58:236866,1,18,9,1,3,2,-4,-2
14:43:58:242832,-2,3,13,4,-3,0,9,4
14:43:58:250291,-2,-5,-10,-2,-2,-3,-3,-5
14:43:58:257955,-2,-5,-10,-2,-2,-3,-3,-5
14:43:58:265319,3,-9,-7,-2,1,-2,-4,-6
14:43:58:273489,4,1,-6,8,-6,-4,-9,-3
14:43:58:274290,4,1,-6,8,-6,-4,-9,-3
14:43:58:280318,-9,-43,-16,-1,8,-4,-7,2
14:43:58:295991,2,2,-4,1,1,-2,-3,-3
14:43:58:296799,2,2,-4,1,1,-2,-3,-3
14:43:58:302830,1,1,6,1,-3,3,3,1
14:43:58:310325,-16,-33,-13,-5,-2,1,-4,-2
14:43:58:317877,-16,-33,-13,-5,-2,1,-4,-2
14:43:58:325352,-4,11,-11,-8,-4,-1,-4,-2
14:43:58:333495,7,14,6,-7,-4,5,15,1
14:43:58:334327,7,14,6,-7,-4,5,15,1
14:43:58:340307,0,-2,-2,2,2,-1,-3,-5
14:43:58:356000,0,-23,-1,-4,-4,-1,9,1
14:43:58:356828,0,-23,-1,-4,-4,-1,9,1
14:43:58:362789,-2,-5,0,0,-5,-2,0,-1
14:43:58:370336,1,-5,2,-1,-1,-3,-2,-4
14:43:58:377895,1,-5,2,-1,-1,-3,-2,-4
14:43:58:385334,3,9,-2,-18,-12,-3,-5,-6
14:43:58:393519,1,-1,-4,2,2,-1,-3,0
14:43:58:394334,1,-1,-4,2,2,-1,-3,0
14:43:58:400299,-8,-13,-2,4,-4,-5,4,-5
14:43:58:416018,-19,-21,-8,-2,3,1,-6,-1
14:43:58:416840,-19,-21,-8,-2,3,1,-6,-1
14:43:58:422797,-2,11,-3,11,1,-1,-4,-6
14:43:58:430304,0,2,6,6,2,-2,-6,0
14:43:58:437870,0,2,6,6,2,-2,-6,0
14:43:58:445319,-2,8,0,-3,2,-2,-8,0
14:43:58:453551,-1,4,-1,2,-3,2,-8,-2
14:43:58:454356,-1,4,-1,2,-3,2,-8,-2
14:43:58:460339,-2,-2,-6,-15,-4,-2,-2,-3
14:43:58:476047,4,19,13,-27,-9,-6,-11,-2
14:43:58:476849,4,19,13,-27,-9,-6,-11,-2
14:43:58:482808,-2,-14,11,11,0,0,4,2
14:43:58:490320,-4,17,0,6,-4,-2,1,0
14:43:58:497888,-4,17,0,6,-4,-2,1,0
14:43:58:505344,-10,0,-4,-1,2,4,8,6
14:43:58:513476,6,0,-3,3,0,2,2,0
14:43:58:514315,6,0,-3,3,0,2,2,0
14:43:58:520348,8,3,13,1,-2,-2,3,1
14:43:58:536045,-5,-27,-11,1,3,-2,-4,3
14:43:58:536885,-5,-27,-11,1,3,-2,-4,3
14:43:58:542854,3,14,8,4,1,0,-12,-3
14:43:58:550306,-4,-21,-9,0,1,-1,-2,-2
14:43:58:557927,-4,-21,-9,0,1,-1,-2,-2
14:43:58:565343,2,-6,-6,-2,2,2,-1,7
14:43:58:573484,4,19,6,8,5,0,0,1
14:43:58:574305,4,19,6,8,5,0,0,1
14:43:58:580276,1,-8,5,3,-8,-6,1,-5
14:43:58:604197,9,6,-24,-3,6,8,10,4
14:43:58:605010,9,6,-24,-3,6,8,10,4
14:43:58:605804,-23,-7,-12,-4,1,1,-3,-4
14:43:58:610354,0,-2,1,-3,-1,-1,1,-3
14:43:58:617906,0,-2,1,-3,-1,-1,1,-3
14:43:58:625332,1,-6,-20,-4,2,3,1,2
14:43:58:633469,-1,3,2,-2,-4,-2,-4,3
14:43:58:634292,-1,3,2,-2,-4,-2,-4,3
14:43:58:640372,0,9,17,2,-2,-4,-1,-1
14:43:58:656053,3,-17,11,1,-3,-2,-6,-3
14:43:58:656866,3,-17,11,1,-3,-2,-6,-3
14:43:58:662846,0,-2,5,-9,-1,-3,2,-5
14:43:58:670332,-5,0,2,-2,-1,-1,-2,0
14:43:58:677839,-5,0,2,-2,-1,-1,-2,0
14:43:58:685370,-2,-6,-2,4,1,1,-4,-3
14:43:58:693504,0,21,15,5,-3,-2,-4,-5
14:43:58:694310,0,21,15,5,-3,-2,-4,-5
14:43:58:708336,-15,13,-5,-6,-4,2,22,5
14:43:58:716003,-3,-27,-16,-3,-1,2,1,2
14:43:58:716813,-3,-27,-16,-3,-1,2,1,2
14:43:58:722849,12,-1,-10,-5,-1,-1,-4,0
14:43:58:738545,-7,-2,11,1,-2,-3,-1,1
14:43:58:739342,-7,-2,11,1,-2,-3,-1,1
14:43:58:745354,7,-15,2,2,0,-3,-10,-2
14:43:58:753481,2,17,6,0,-3,-6,-12,-6
14:43:58:754319,2,17,6,0,-3,-6,-12,-6
14:43:58:767829,3,-3,-9,2,2,2,10,4
14:43:58:776035,0,-23,3,13,1,-1,9,0
14:43:58:776875,0,-23,3,13,1,-1,9,0
14:43:58:782856,3,10,-1,6,-5,-5,-4,-1
14:43:58:798548,3,10,-1,6,-5,-5,-4,-1
14:43:58:799346,-6,2,-15,-7,2,0,-1,-3
14:43:58:805315,-3,-4,15,-3,-2,0,-7,-3
14:43:58:821071,-3,-4,15,-3,-2,0,-7,-3
14:43:58:821862,-21,-1,-10,-11,-6,-1,5,-3
14:43:58:827812,-7,-10,-5,0,2,-1,-6,-3
14:43:58:836052,-7,-10,-5,0,2,-1,-6,-3
14:43:58:836854,-9,-5,-7,-3,-4,-3,3,-1
14:43:58:842851,-2,15,-4,5,6,2,-4,1
14:43:58:858545,-2,15,-4,5,6,2,-4,1
14:43:58:859318,0,6,7,9,-3,-3,-10,1
14:43:58:865324,4,15,-7,-5,-2,1,3,-2
14:43:58:873540,4,15,-7,-5,-2,1,3,-2
14:43:58:874356,5,3,-7,-6,1,2,-1,1
14:43:58:887806,-10,-30,-10,-26,-11,-5,-6,-1
14:43:58:896038,-10,-30,-10,-26,-11,-5,-6,-1
14:43:58:896867,-10,24,10,5,1,-1,-2,-6
14:43:58:902822,-16,22,4,5,0,3,-2,-5
14:43:58:918522,-16,22,4,5,0,3,-2,-5
14:43:58:919370,8,15,-7,-3,2,-1,-2,0
14:43:58:925295,6,-30,-10,1,-1,0,-3,-4
14:43:58:933537,6,-30,-10,1,-1,0,-3,-4
14:43:58:934352,3,-9,-3,2,4,-1,3,0
14:43:58:947812,7,3,19,6,0,1,2,2
14:43:58:956064,7,3,19,6,0,1,2,2
14:43:58:956842,5,-6,6,1,-1,-5,-4,2
14:43:58:962793,6,5,-12,-30,-1,0,2,-2
14:43:58:978521,6,5,-12,-30,-1,0,2,-2
14:43:58:979319,4,-8,2,-6,-4,3,2,-4
14:43:58:985306,1,-42,-10,9,0,-5,2,-3
14:43:58:993524,1,-42,-10,9,0,-5,2,-3
14:43:58:994334,5,12,9,-2,-2,-2,-1,1
14:43:59:7785,1,0,-7,8,-3,-1,-6,1
14:43:59:16031,1,0,-7,8,-3,-1,-6,1
14:43:59:16818,9,-5,-7,2,2,0,-2,3
14:43:59:22816,-2,6,-2,8,2,3,4,3
14:43:59:38532,-2,6,-2,8,2,3,4,3
14:43:59:39285,-6,19,0,-1,-3,1,5,-1
14:43:59:45319,-2,-21,-12,13,5,-3,-4,-4
14:43:59:53538,-2,-21,-12,13,5,-3,-4,-4
14:43:59:54336,-9,-1,-2,-9,-8,-4,-6,-4
14:43:59:67877,-2,12,12,-3,-9,-1,4,1
14:43:59:76030,-2,12,12,-3,-9,-1,4,1
14:43:59:76815,4,-13,-4,-6,-2,-2,-3,-4
14:43:59:82801,-3,14,4,10,-3,-1,-4,-4
14:43:59:98509,-3,14,4,10,-3,-1,-4,-4
14:43:59:99307,-1,-3,-22,-2,-3,-4,-4,2
14:43:59:105363,-3,2,0,-22,-4,-6,-6,-1
14:43:59:113522,-3,2,0,-22,-4,-6,-6,-1
14:43:59:114323,-1,-26,9,1,5,3,0,1
14:43:59:127853,0,0,-4,-9,-2,-4,-6,-2
14:43:59:136020,0,0,-4,-9,-2,-4,-6,-2
14:43:59:136819,-3,-6,-4,1,-1,-4,-8,0
14:43:59:142843,0,12,13,1,-3,-1,5,1
14:43:59:158486,0,12,13,1,-3,-1,5,1
14:43:59:159312,-2,14,5,2,2,3,11,-2
14:43:59:165351,13,24,18,6,0,3,1,3
14:43:59:173497,13,24,18,6,0,3,1,3
14:43:59:174286,2,26,6,-11,-3,-4,-3,-4
14:43:59:187819,-1,5,-1,3,4,1,-1,-2
14:43:59:195996,-1,5,-1,3,4,1,-1,-2
14:43:59:196821,3,-8,-3,-1,-6,-6,-8,2
14:43:59:202877,1,-2,-3,0,-1,2,8,-3
14:43:59:218544,1,-2,-3,0,-1,2,8,-3
14:43:59:219364,-3,-29,-19,0,2,2,1,-4
14:43:59:225319,-1,7,8,-6,1,-1,-9,-1
14:43:59:233527,-1,7,8,-6,1,-1,-9,-1
14:43:59:234284,5,5,3,-6,-1,4,4,1
14:43:59:247839,0,-12,-10,2,-1,-5,-10,-4
14:43:59:256067,0,-12,-10,2,-1,-5,-10,-4
14:43:59:256851,1,-5,0,5,-2,2,16,4
14:43:59:262841,-26,-16,-21,0,-6,-2,8,-1
14:43:59:278552,-26,-16,-21,0,-6,-2,8,-1
14:43:59:279315,-6,8,3,1,-4,-4,-9,-5
14:43:59:285297,4,4,-6,5,3,2,-5,0
14:43:59:293573,4,4,-6,5,3,2,-5,0
14:43:59:294353,-18,-11,-6,-4,-3,-11,-11,-1
14:43:59:307844,-7,2,4,3,7,1,-3,-2
14:43:59:316089,-7,2,4,3,7,1,-3,-2
14:43:59:316863,-7,-5,-5,-7,-1,5,47,-5
14:43:59:322829,-4,-15,-8,-5,-6,-4,2,2
14:43:59:338589,-4,-15,-8,-5,-6,-4,2,2
14:43:59:339348,-2,11,13,6,-3,-3,-9,2
14:43:59:345340,2,7,0,-3,4,7,5,0
14:43:59:353563,2,7,0,-3,4,7,5,0
14:43:59:354380,-16,-32,-9,14,7,2,-12,-2
14:43:59:367808,7,19,4,-1,-3,-7,-22,-6
14:43:59:376030,7,19,4,-1,-3,-7,-22,-6
14:43:59:376865,8,14,5,2,4,1,-9,1
14:43:59:382825,10,1,22,5,-2,-7,-14,-3
14:43:59:398526,10,1,22,5,-2,-7,-14,-3
14:43:59:399324,2,12,3,0,4,0,-10,-1
14:43:59:405309,11,15,6,1,9,8,-4,2
14:43:59:413551,11,15,6,1,9,8,-4,2
14:43:59:414371,-5,-1,-4,-11,-8,-3,-11,-5
14:43:59:427808,-6,-9,9,1,-8,-5,2,1
14:43:59:436087,-6,-9,9,1,-8,-5,2,1
14:43:59:436839,4,-1,6,1,2,1,-6,-4
14:43:59:442817,2,0,14,-11,-8,-6,-4,-3
14:43:59:458536,2,0,14,-11,-8,-6,-4,-3
14:43:59:459328,3,-4,6,-34,-10,-3,7,1
14:43:59:465280,-1,-8,-17,-5,6,7,8,5
14:43:59:472878,-1,-8,-17,-5,6,7,8,5
14:43:59:480332,-4,1,-4,5,2,0,0,0
14:43:59:487850,2,-16,-15,-5,-7,-3,3,-1
14:43:59:496046,2,-16,-15,-5,-7,-3,3,-1
14:43:59:496831,3,5,-3,8,4,1,0,2
14:43:59:502865,-11,6,-12,6,2,-1,8,1
14:43:59:518558,-11,6,-12,6,2,-1,8,1
14:43:59:519369,0,-2,-10,5,-4,1,0,1
14:43:59:525303,0,-4,-2,6,6,6,9,1
14:43:59:533302,0,-4,-2,6,6,6,9,1
14:43:59:540321,12,7,-22,0,2,-3,-4,1
14:43:59:547821,-6,8,15,-2,-9,-5,7,3
14:43:59:556024,-6,8,15,-2,-9,-5,7,3
14:43:59:556793,13,9,10,0,1,1,-2,0
14:43:59:562824,-5,1,-10,-4,0,1,5,-2
14:43:59:578552,-5,1,-10,-4,0,1,5,-2
14:43:59:579348,-7,-17,3,-4,-5,0,21,-2
14:43:59:585343,-22,-8,-4,1,-4,-4,7,0
14:43:59:593518,-22,-8,-4,1,-4,-4,7,0
14:43:59:594293,-2,-13,-12,0,4,3,-8,0
14:43:59:607831,4,-10,-10,0,1,-2,-5,-2
14:43:59:616036,4,-10,-10,0,1,-2,-5,-2
14:43:59:616852,-16,19,28,2,-4,-2,-7,-2
14:43:59:622806,2,-8,-11,-15,-6,-4,-15,-3
14:43:59:638584,2,-8,-11,-15,-6,-4,-15,-3
14:43:59:639336,7,-14,-14,4,2,-4,-8,-2
14:43:59:645341,-4,-1,-4,7,4,1,0,-4
14:43:59:652918,-4,-1,-4,7,4,1,0,-4
14:43:59:660330,-2,12,-5,1,-6,-6,-13,-4
14:43:59:667813,1,-56,-12,-1,1,-4,-3,-2
14:43:59:676019,1,-56,-12,-1,1,-4,-3,-2
14:43:59:676818,2,6,2,4,0,0,-8,3
14:43:59:690307,9,9,1,9,0,-3,-5,-1
14:43:59:698582,9,9,1,9,0,-3,-5,-1
14:43:59:699368,-3,-10,7,-2,-1,5,6,1
14:43:59:705345,1,17,-6,0,1,1,2,-2
14:43:59:712854,1,17,-6,0,1,1,2,-2
14:43:59:720355,3,17,5,-1,-2,-2,-1,-3
14:43:59:727888,3,-2,0,-1,-4,1,4,4
14:43:59:736051,3,-2,0,-1,-4,1,4,4
14:43:59:736851,-7,-17,7,-8,-4,-5,-4,-2
14:43:59:750328,2,12,12,7,8,4,2,1
14:43:59:758500,2,12,12,7,8,4,2,1
14:43:59:759299,1,3,-10,-2,-6,-2,1,0
14:43:59:765349,4,-2,-4,-7,-6,-6,-10,-3
14:43:59:772859,4,-2,-4,-7,-6,-6,-10,-3
14:43:59:780299,5,4,16,10,2,0,-1,-1
14:43:59:787803,2,6,-2,-8,-1,1,-1,0
14:43:59:796046,2,6,-2,-8,-1,1,-1,0
14:43:59:796834,-1,8,-16,-5,-3,0,0,-1
14:43:59:810350,2,1,5,10,2,0,3,1
14:43:59:818540,2,1,5,10,2,0,3,1
14:43:59:819318,-2,1,4,3,-1,-3,6,4
14:43:59:825310,-7,-26,0,-7,4,3,2,-2
14:43:59:832857,-7,-26,0,-7,4,3,2,-2
14:43:59:840283,2,-7,6,-2,0,-3,-19,-1
14:43:59:847785,-4,16,2,5,-5,-4,-6,-1
